Program Time [s],data 0,data 1,data 2,data 3
13240,8,6,5,7
13240,7,6,4,7
13240,7,5,3,4
13240,5,5,2,2
13240,3,2,1,1
13240,2,2,1,2
13240,3,6,5,2
13240,5,9,6,2
13240,1,4,2,-1
13240,-2,-1,-2,-3
13240,-2,-2,-2,0
13240,1,-2,-1,2
13240,3,-2,-1,4
13240,6,2,1,5
13240,9,9,7,7
13240,9,11,9,5
13240,5,6,4,2
13240,2,0,-1,-1
13240,0,0,-2,-2
13240,0,2,1,0
13240,1,4,5,3
13240,3,5,5,3
13240,3,3,2,0
13240,1,1,0,0
13240,0,1,0,0
13240,1,2,2,1
13240,3,5,5,4
13240,5,6,4,4
13240,5,4,3,2
13240,3,3,2,1
13240,1,2,1,1
13240,2,3,3,3
13240,4,3,3,3
13240,4,4,2,1
13240,1,2,1,1
13240,2,2,1,2
13240,3,3,3,3
13240,4,3,2,2
13240.1,3,4,4,2
13240.1,3,4,3,1
13240.1,3,5,4,2
13240.1,3,8,6,0
13240.1,3,7,4,-2
13240.1,0,5,3,-3
13240.1,-2,2,0,-4
13240.1,-3,0,-1,-3
13240.1,-2,0,0,0
13240.1,1,0,0,4
13240.1,4,-2,-1,7
13240.1,8,0,1,10
13240.1,11,3,4,15
13240.1,15,4,4,16
13240.1,16,4,2,10
13240.1,11,4,1,5
13240.1,6,2,0,0
13240.1,2,4,2,-2
13240.1,3,15,11,-3
13240.1,-2,11,9,-5
13240.1,-7,3,3,-7
13240.1,-8,-4,-4,-8
13240.1,-9,-10,-9,-7
13240.1,-6,-10,-8,-1
13240.1,0,-4,-3,5
13240.1,8,4,5,12
13240.1,14,8,7,12
13240.1,12,6,5,9
13240.1,10,6,5,8
13240.1,9,10,9,7
13240.1,10,16,13,6
13240.1,4,9,7,1
13240.1,0,0,-1,-3
13240.1,-4,-5,-6,-5
13240.1,-3,-5,-5,-2
13240.1,-1,-2,0,2
13240.1,4,3,3,5
13240.1,8,6,5,4
13240.1,7,9,6,2
13240.1,4,8,6,1
13240.1,6,16,13,2
13240.1,1,9,7,-2
13240.1,-3,0,-1,-5
13240.1,-5,-4,-5,-3
13240.1,-3,-6,-6,-2
13240.1,-1,-5,-4,2
13240.1,5,4,2,6
13240.1,9,9,7,8
13240.1,8,7,5,5
13240.1,5,3,2,2
13240.1,2,0,0,1
13240.1,4,3,3,4
13240.1,6,6,4,3
13240.1,4,3,2,1
13240.1,2,2,1,0
13240.1,2,2,1,1
13240.1,2,3,2,1
13240.1,2,3,3,2
13240.1,3,4,3,2
13240.1,2,2,1,1
13240.1,1,0,0,1
13240.1,1,1,0,1
13240.1,2,2,2,3
13240.1,4,5,4,5
13240.1,6,7,5,5
13240.1,5,6,5,2
13240.1,4,5,4,1
13240.1,2,4,3,1
13240.1,3,5,3,1
13240.1,1,3,2,0
13240.1,0,-1,-1,0
13240.1,0,0,0,0
13240.1,2,2,0,2
13240.1,4,3,2,3
13240.1,2,0,-1,3
13240.1,2,-2,-2,5
13240.1,6,0,0,6
13240.1,8,4,3,7
13240.1,10,8,6,7
13240.1,10,11,9,6
13240.1,8,12,9,2
13240.1,2,6,3,-2
13240.1,-4,0,-2,-5
13240.1,-4,-2,-3,-5
13240.1,-3,0,0,-1
13240.1,0,0,-1,0
13240.1,0,-1,0,2
13240.1,1,-2,-2,2
13240.1,4,-1,-1,5
13240.1,7,2,1,7
13240.1,9,6,5,8
13240.1,9,9,8,7
13240.1,10,14,12,7
13240.1,7,12,11,2
13240.1,2,5,3,-2
13240.1,-3,0,0,-3
13240.1,-3,-1,-1,-3
13240.1,-3,-2,-1,0
13240.1,0,1,1,1
13240.1,3,4,3,1
13240.1,3,4,4,3
13240.1,3,2,2,2
13240.1,2,1,0,3
13240.1,3,1,1,3
13240.1,3,1,1,4
13240.1,5,3,2,4
13240.1,6,4,3,4
13240.1,7,9,7,4
13240.1,6,11,8,2
13240.1,2,4,3,0
13240.1,-1,1,0,0
13240.1,0,0,0,0
13240.1,0,1,0,0
13240.1,0,1,0,2
13240.1,3,3,2,2
13240.1,3,4,3,4
13240.1,5,4,2,2
13240.1,3,2,1,1
13240.1,2,2,0,1
13240.1,3,3,2,3
13240.1,5,6,4,3
13240.1,5,6,4,1
13240.1,2,3,2,0
13240.1,1,3,2,1
13240.1,1,2,2,2
13240.1,2,2,1,1
13240.1,2,2,1,1
13240.1,1,1,0,1
13240.1,1,0,0,2
13240.1,0,-3,-2,3
13240.1,3,-2,-2,4
13240.1,9,10,8,6
13240.1,9,12,10,4
13240.1,5,11,8,1
13240.1,1,7,6,0
13240.1,-1,2,1,-2
13240.1,-2,0,0,-1
13240.1,-1,0,0,0
13240.1,0,-3,-1,4
13240.1,3,-1,0,6
13240.1,8,2,2,8
13240.1,8,2,0,5
13240.1,7,4,2,4
13240.1,6,6,5,5
13240.1,6,6,5,4
13240.1,5,4,3,2
13240.1,3,1,0,0
13240.1,1,0,-1,0
13240.1,1,1,0,1
13240.1,4,4,3,2
13240.1,4,4,3,3
13240.1,5,7,5,0
13240.1,2,7,5,0
13240.1,0,5,4,0
13240.1,1,6,5,-1
13240.1,0,5,4,-1
13240.1,-2,2,1,-3
13240.1,-5,-8,-7,-3
13240.1,-2,-4,-3,1
13240.1,4,1,2,6
13240.1,6,2,2,6
13240.1,7,2,1,5
13240.1,8,7,6,6
13240.1,8,8,7,6
13240.1,7,6,4,4
13240.1,4,4,2,2
13240.1,2,1,0,1
13240.1,2,2,1,1
13240.1,2,2,3,3
13240.1,1,0,1,2
13240.1,1,2,3,3
13240.1,3,3,3,4
13240.1,4,4,3,3
13240.2,6,8,6,3
13240.2,5,7,4,1
13240.2,2,6,3,0
13240.2,1,4,2,-1
13240.2,0,1,0,-1
13240.2,-1,0,-1,-1
13240.2,0,0,0,-1
13240.2,0,0,0,0
13240.2,2,1,1,2
13240.2,3,2,2,4
13240.2,6,6,5,5
13240.2,7,6,5,5
13240.2,4,4,2,2
13240.2,3,4,3,2
13240.2,3,4,3,3
13240.2,3,3,1,1
13240.2,1,2,0,0
13240.2,1,1,1,1
13240.2,1,2,2,3
13240.2,3,2,1,2
13240.2,4,7,5,3
13240.2,6,10,7,2
13240.2,2,7,6,0
13240.2,0,4,3,0
13240.2,0,1,0,0
13240.2,-1,-2,-2,-1
13240.2,-3,-6,-5,0
13240.2,0,-4,-3,4
13240.2,8,6,6,10
13240.2,11,10,8,8
13240.2,8,6,5,4
13240.2,4,3,2,2
13240.2,1,-1,-1,0
13240.2,2,-1,0,3
13240.2,3,0,0,4
13240.2,4,1,0,4
13240.2,7,6,3,5
13240.2,7,7,6,5
13240.2,7,11,8,4
13240.2,6,10,8,1
13240.2,0,0,0,-3
13240.2,-2,-3,-4,-3
13240.2,1,4,4,1
13240.2,3,7,6,1
13240.2,1,3,2,0
13240.2,0,0,0,-1
13240.2,0,1,0,0
13240.2,1,2,0,0
13240.2,0,0,0,1
13240.2,3,3,2,3
13240.2,6,6,5,5
13240.2,5,5,3,3
13240.2,3,2,0,1
13240.2,3,2,1,0
13240.2,2,3,2,1
13240.2,4,4,4,3
13240.2,4,6,5,3
13240.2,3,4,3,1
13240.2,1,2,2,0
13240.2,1,1,1,1
13240.2,1,-1,-1,1
13240.2,1,0,0,4
13240.2,5,4,4,5
13240.2,6,4,4,4
13240.2,4,3,3,3
13240.2,5,6,6,4
13240.2,5,8,7,3
13240.2,3,5,3,0
13240.2,-1,0,0,-3
13240.2,0,2,2,0
13240.2,1,2,2,2
13240.2,1,-2,-2,2
13240.2,2,-1,-3,1
13240.2,3,0,0,2
13240.2,4,4,2,2
13240.2,5,6,5,3
13240.2,5,6,4,2
13240.2,4,6,4,2
13240.2,5,7,6,2
13240.2,5,11,8,3
13240.2,4,8,6,1
13240.2,2,3,3,2
13240.2,3,3,3,5
13240.2,5,0,-1,4
13240.2,3,-2,-4,1
13240.2,2,-3,-4,0
13240.2,1,0,-3,-1
13240.2,1,0,-1,-1
13240.2,0,1,0,0
13240.2,0,2,3,1
13240.2,3,4,4,4
13240.2,5,6,6,5
13240.2,5,4,4,2
13240.2,2,3,2,1
13240.2,2,2,3,2
13240.2,3,3,3,3
13240.2,3,4,3,3
13240.2,4,4,3,3
13240.2,3,3,1,1
13240.2,2,4,3,2
13240.2,3,5,4,2
13240.2,4,6,6,3
13240.2,4,6,4,2
13240.2,2,3,2,0
13240.2,0,2,2,0
13240.2,0,2,1,0
13240.2,1,1,1,0
13240.2,1,-1,-1,1
13240.2,0,-2,-2,2
13240.2,4,0,0,4
13240.2,5,2,2,5
13240.2,6,3,3,7
13240.2,8,4,3,7
13240.2,9,7,4,5
13240.2,6,6,3,1
13240.2,3,6,4,1
13240.2,4,11,9,2
13240.2,2,7,6,0
13240.2,-1,1,-1,-3
13240.2,-3,-3,-4,-4
13240.2,-3,-3,-4,-2
13240.2,-1,-1,-1,0
13240.2,2,1,2,3
13240.2,4,5,4,5
13240.2,6,7,5,5
13240.2,5,6,4,3
13240.2,4,6,4,2
13240.2,4,9,8,2
13240.2,4,10,8,1
13240.2,1,6,5,0
13240.2,-1,1,0,-3
13240.2,-3,-2,-2,-3
13240.2,-3,-2,-1,1
13240.2,0,-7,-5,2
13240.2,2,-6,-6,6
13240.2,9,1,1,9
13240.2,10,2,1,8
13240.2,8,0,0,10
13240.2,12,5,5,11
13240.2,15,10,8,9
13240.2,12,15,11,5
13240.2,9,16,12,1
13240.2,0,5,3,-3
13240.2,-3,0,0,-4
13240.2,-3,0,0,-4
13240.2,-3,0,-2,-5
13240.2,-4,-1,-1,-3
13240.2,-2,0,0,0
13240.2,2,3,3,3
13240.2,4,4,2,2
13240.2,4,5,3,1
13240.2,2,3,1,2
13240.2,2,1,2,4
13240.2,5,3,3,5
13240.2,6,2,1,3
13240.2,2,0,-1,1
13240.2,3,-1,-1,3
13240.2,5,2,3,6
13240.2,7,7,5,6
13240.2,7,5,4,4
13240.2,6,8,6,2
13240.2,7,16,14,2
13240.2,4,18,14,-1
13240.2,-5,2,2,-5
13240.2,-8,-7,-7,-6
13240.2,-7,-7,-6,-5
13240.2,-4,-3,-3,-1
13240.2,0,0,0,3
13240.2,4,4,5,6
13240.2,8,7,6,7
13240.2,8,7,6,5
13240.2,5,5,3,2
13240.2,3,5,5,2
13240.2,3,6,6,4
13240.2,5,7,5,3
13240.3,4,5,4,1
13240.3,1,1,0,-2
13240.3,-1,-2,-2,-1
13240.3,0,-2,-2,1
13240.3,1,-4,-4,4
13240.3,6,0,0,6
13240.3,9,8,6,6
13240.3,10,12,10,6
13240.3,8,11,9,4
13240.3,5,9,7,1
13240.3,1,4,2,-2
13240.3,-3,-3,-4,-5
13240.3,-6,-7,-6,-3
13240.3,-2,-7,-5,2
13240.3,5,0,0,7
13240.3,9,7,6,7
13240.3,8,4,2,5
13240.3,6,2,0,3
13240.3,5,6,4,2
13240.3,5,7,6,2
13240.3,4,6,5,1
13240.3,1,3,3,1
13240.3,0,0,0,1
13240.3,0,-3,-2,2
13240.3,2,0,-1,4
13240.3,5,2,0,3
13240.3,5,4,4,5
13240.3,5,5,5,5
13240.3,5,4,4,5
13240.3,6,6,4,4
13240.3,4,4,3,1
13240.3,2,3,2,0
13240.3,1,2,2,1
13240.3,2,3,1,0
13240.3,1,2,1,0
13240.3,0,1,0,0
13240.3,0,4,2,0
13240.3,1,5,4,1
13240.3,2,5,4,1
13240.3,0,3,2,-1
13240.3,-1,2,3,1
13240.3,2,5,6,3
13240.3,4,7,7,5
13240.3,4,2,2,4
13240.3,4,2,1,3
13240.3,5,4,2,2
13240.3,5,7,5,3
13240.3,5,5,2,1
13240.3,2,2,0,0
13240.3,1,0,-1,-1
13240.3,1,1,0,0
13240.3,2,3,1,0
13240.3,2,3,2,1
13240.3,3,4,3,2
13240.3,3,2,2,2
13240.3,3,2,1,2
13240.3,2,2,2,3
13240.3,3,2,2,2
13240.3,3,0,0,2
13240.3,3,3,3,4
13240.3,5,5,3,3
13240.3,4,5,4,3
13240.3,4,5,3,3
13240.3,3,4,2,2
13240.3,4,7,6,3
13240.3,3,6,5,0
13240.3,0,0,0,-1
13240.3,-1,-1,-1,0
13240.3,2,3,3,3
13240.3,4,4,3,3
13240.3,1,0,0,2
13240.3,1,-2,-2,4
13240.3,6,4,3,7
13240.3,9,10,8,6
13240.3,6,6,3,2
13240.3,2,0,0,2
13240.3,4,5,3,3
13240.3,4,6,5,2
13240.3,3,3,1,0
13240.3,0,2,1,-1
13240.3,1,3,2,1
13240.3,3,3,2,0
13240.3,4,8,6,1
13240.3,0,0,-1,-2
13240.3,-2,-2,-2,-1
13240.3,0,-1,-1,2
13240.3,4,2,1,4
13240.3,6,6,4,4
13240.3,5,7,5,3
13240.3,3,4,4,3
13240.3,4,4,3,3
13240.3,4,3,2,1
13240.3,1,1,0,0
13240.3,0,0,0,1
13240.3,2,2,2,3
13240.3,4,5,5,5
13240.3,5,4,2,3
13240.3,2,0,0,0
13240.3,1,0,0,0
13240.3,0,2,1,2
13240.3,3,5,5,4
13240.3,7,10,8,3
13240.3,6,16,13,2
13240.3,1,11,9,-1
13240.3,-3,3,4,-1
13240.3,-2,1,2,1
13240.3,0,0,1,4
13240.3,2,-2,0,6
13240.3,5,-6,-6,5
13240.3,4,-5,-6,4
13240.3,7,-1,-3,3
13240.3,6,1,0,1
13240.3,3,1,0,0
13240.3,3,2,2,3
13240.3,5,6,5,5
13240.3,7,7,5,4
13240.3,6,5,3,1
13240.3,2,3,0,0
13240.3,1,2,2,1
13240.3,3,5,5,4
13240.3,5,5,4,2
13240.3,2,3,1,0
13240.3,0,0,0,0
13240.3,0,1,1,1
13240.3,3,3,2,2
13240.3,3,4,4,3
13240.3,3,4,2,1
13240.3,0,2,2,1
13240.3,2,4,4,3
13240.3,4,4,4,4
13240.3,5,5,4,2
13240.3,2,2,2,1
13240.3,1,2,1,1
13240.3,2,4,3,2
13240.3,3,5,3,2
13240.3,2,3,2,1
13240.3,1,2,1,1
13240.3,2,2,1,1
13240.3,2,2,1,1
13240.3,2,3,2,2
13240.3,3,4,4,4
13240.3,3,4,3,2
13240.3,5,7,5,3
13240.3,4,8,5,1
13240.3,2,6,4,0
13240.3,1,4,3,0
13240.3,0,2,1,-1
13240.3,0,0,0,-1
13240.3,-2,-4,-4,0
13240.3,0,-3,-4,3
13240.3,5,1,0,5
13240.3,8,6,4,6
13240.3,8,4,2,6
13240.3,9,6,5,6
13240.3,7,5,2,4
13240.3,5,3,1,2
13240.3,4,4,3,2
13240.3,2,3,2,2
13240.3,3,2,2,1
13240.3,3,5,3,0
13240.3,0,2,2,0
13240.3,0,1,1,0
13240.3,0,2,2,1
13240.3,2,3,2,2
13240.3,2,2,1,1
13240.3,1,0,0,1
13240.3,1,0,0,3
13240.3,4,3,2,6
13240.3,7,6,4,5
13240.3,7,6,4,4
13240.3,4,4,4,1
13240.3,1,2,2,2
13240.3,3,4,3,2
13240.4,3,4,3,1
13240.4,3,5,4,0
13240.4,1,5,3,0
13240.4,0,2,2,0
13240.4,0,0,1,1
13240.4,1,0,0,0
13240.4,2,1,0,0
13240.4,1,3,1,1
13240.4,3,4,3,3
13240.4,5,5,3,3
13240.4,5,6,4,3
13240.4,5,6,3,1
13240.4,3,6,4,1
13240.4,3,5,4,1
13240.4,2,2,0,0
13240.4,0,-1,-2,0
13240.4,0,-4,-4,0
13240.4,0,-5,-4,3
13240.4,4,-1,-1,6
13240.4,10,6,5,9
13240.4,12,11,9,7
13240.4,8,10,7,2
13240.4,7,14,10,0
13240.4,0,8,6,-1
13240.4,-2,2,0,-4
13240.4,-4,0,-2,-4
13240.4,-3,0,-1,-4
13240.4,-2,1,1,0
13240.4,2,8,9,4
13240.4,5,11,10,4
13240.4,3,4,3,0
13240.4,-3,-8,-8,-2
13240.4,-3,-12,-10,1
13240.4,3,-4,-3,7
13240.4,11,4,4,10
13240.4,13,11,9,11
13240.4,12,10,8,8
13240.4,8,5,4,4
13240.4,2,-3,-3,1
13240.4,1,-3,-3,2
13240.4,4,1,1,5
13240.4,7,5,5,6
13240.4,8,10,7,5
13240.4,9,14,11,2
13240.4,1,6,3,-4
13240.4,-4,-2,-2,-4
13240.4,-3,0,0,-2
13240.4,0,2,1,0
13240.4,0,0,0,-1
13240.4,0,1,0,0
13240.4,2,5,4,2
13240.4,3,6,5,3
13240.4,3,5,3,1
13240.4,3,3,2,0
13240.4,1,2,2,1
13240.4,2,2,1,2
13240.4,3,4,3,3
13240.4,4,4,3,2
13240.4,3,3,3,1
13240.4,2,3,3,2
13240.4,2,3,2,2
13240.4,2,2,2,2
13240.4,3,3,2,2
13240.4,2,2,2,2
13240.4,3,2,0,2
13240.4,2,1,1,2
13240.4,3,4,3,4
13240.4,6,7,5,5
13240.4,6,8,6,2
13240.4,4,9,7,2
13240.4,2,8,6,-1
13240.4,-1,3,2,-1
13240.4,-3,-2,-2,-2
13240.4,-3,-4,-5,0
13240.4,0,-5,-5,0
13240.4,0,-6,-4,5
13240.4,5,-1,0,10
13240.4,12,6,6,12
13240.4,13,9,7,10
13240.4,11,7,6,8
13240.4,8,5,2,6
13240.4,6,1,-1,2
13240.4,4,1,-1,2
13240.4,4,1,-1,0
13240.4,2,1,0,0
13240.4,1,1,0,0
13240.4,2,3,1,0
13240.4,3,6,4,0
13240.4,2,7,5,-1
13240.4,0,6,5,-1
13240.4,0,8,8,0
13240.4,0,7,7,0
13240.4,0,3,2,-1
13240.4,-1,0,1,-1
13240.4,-1,1,2,0
13240.4,0,1,2,1
13240.4,3,4,4,3
13240.4,3,4,3,1
13240.4,1,2,1,1
13240.4,1,4,4,2
13240.4,3,6,5,4
13240.4,3,3,3,3
13240.4,3,0,0,1
13240.4,1,-4,-4,2
13240.4,2,-2,-2,4
13240.4,7,5,5,8
13240.4,10,9,7,7
13240.4,8,8,6,4
13240.4,5,6,5,4
13240.4,5,7,4,2
13240.4,1,5,3,-1
13240.4,0,0,0,-2
13240.4,-1,-1,-1,-1
13240.4,1,2,1,0
13240.4,3,4,3,0
13240.4,2,4,3,1
13240.4,0,0,0,1
13240.4,0,-4,-4,2
13240.4,7,6,4,5
13240.4,8,10,7,4
13240.4,4,3,2,3
13240.4,2,0,0,3
13240.4,4,1,0,2
13240.4,4,2,1,3
13240.4,3,1,0,2
13240.4,3,2,1,2
13240.4,4,4,4,4
13240.4,5,6,5,3
13240.4,3,4,2,1
13240.4,1,2,1,0
13240.4,1,1,1,1
13240.4,1,3,2,1
13240.4,3,4,2,2
13240.4,3,4,3,3
13240.4,3,2,1,1
13240.4,2,2,2,3
13240.4,4,3,3,4
13240.4,4,3,3,3
13240.4,4,3,2,2
13240.4,3,3,2,2
13240.4,3,3,2,2
13240.4,4,5,5,2
13240.4,4,6,5,2
13240.4,3,4,3,1
13240.4,0,2,1,0
13240.4,0,1,0,1
13240.4,2,2,1,0
13240.4,2,3,2,1
13240.4,3,4,3,2
13240.4,3,4,3,2
13240.4,3,3,2,1
13240.4,2,2,1,2
13240.4,3,2,1,2
13240.4,2,1,0,2
13240.4,4,2,1,3
13240.4,4,3,2,3
13240.4,4,4,2,2
13240.4,5,8,6,5
13240.4,6,9,7,2
13240.4,3,5,2,-2
13240.4,-1,3,1,-4
13240.4,-4,0,1,-3
13240.4,-2,1,1,-1
13240.4,-1,1,2,0
13240.4,0,2,2,1
13240.4,2,3,3,4
13240.4,5,6,6,6
13240.4,6,6,7,9
13240.4,9,4,5,11
13240.4,10,2,1,8
13240.4,8,1,0,4
13240.4,5,2,0,0
13240.4,0,0,-1,-1
13240.4,-2,-1,-1,-3
13240.5,-1,0,0,0
13240.5,1,1,1,1
13240.5,3,3,2,2
13240.5,4,4,3,2
13240.5,4,8,6,3
13240.5,4,5,5,2
13240.5,3,4,3,1
13240.5,2,5,3,1
13240.5,1,3,2,0
13240.5,0,-1,-1,1
13240.5,0,-4,-4,3
13240.5,5,2,0,7
13240.5,9,7,5,5
13240.5,7,7,5,4
13240.5,5,5,4,3
13240.5,5,5,3,3
13240.5,4,6,4,0
13240.5,1,4,1,-1
13240.5,-1,1,0,-1
13240.5,0,1,0,0
13240.5,1,4,4,2
13240.5,2,2,1,1
13240.5,0,-1,0,0
13240.5,0,-3,-2,1
13240.5,2,-1,-1,5
13240.5,8,5,5,8
13240.5,10,10,8,6
13240.5,7,10,9,5
13240.5,6,10,9,3
13240.5,5,12,9,0
13240.5,1,9,6,-3
13240.5,-5,0,-1,-6
13240.5,-8,-6,-5,-5
13240.5,-6,-9,-7,0
13240.5,-3,-12,-10,3
13240.5,4,-5,-4,9
13240.5,11,3,3,12
13240.5,15,9,8,12
13240.5,13,10,8,9
13240.5,11,12,10,7
13240.5,11,17,13,3
13240.5,2,5,3,-3
13240.5,-3,0,-1,-3
13240.5,-2,-1,-1,-3
13240.5,-1,-1,-1,-1
13240.5,0,1,0,0
13240.5,1,3,3,1
13240.5,1,3,2,1
13240.5,3,3,2,2
13240.5,3,3,2,1
13240.5,2,2,1,0
13240.5,2,3,2,1
13240.5,2,4,3,1
13240.5,3,5,5,3
13240.5,4,5,4,2
13240.5,3,4,3,0
13240.5,1,5,3,0
13240.5,0,2,1,1
13240.5,0,0,0,2
13240.5,1,0,0,1
13240.5,2,0,-1,2
13240.5,2,-1,-1,3
13240.5,5,2,2,7
13240.5,9,8,7,8
13240.5,10,10,8,6
13240.5,6,8,5,2
13240.5,2,2,2,1
13240.5,2,4,4,2
13240.5,2,2,2,1
13240.5,0,0,0,0
13240.5,0,0,0,0
13240.5,0,2,1,1
13240.5,1,3,3,3
13240.5,5,5,5,3
13240.5,4,6,6,1
13240.5,2,4,3,0
13240.5,0,3,2,0
13240.5,0,2,2,1
13240.5,2,2,1,1
13240.5,0,0,-1,0
13240.5,1,-1,-1,2
13240.5,4,1,1,5
13240.5,8,5,3,5
13240.5,7,5,4,5
13240.5,5,3,1,3
13240.5,4,1,0,3
13240.5,4,0,-1,2
13240.5,3,0,-1,3
13240.5,5,3,1,4
13240.5,6,5,4,3
13240.5,7,12,10,3
13240.5,4,9,7,1
13240.5,0,2,1,-1
13240.5,-1,0,0,-1
13240.5,-1,0,-1,-1
13240.5,0,1,1,0
13240.5,2,4,4,2
13240.5,4,7,6,3
13240.5,5,7,5,2
13240.5,2,6,5,0
13240.5,1,3,1,0
13240.5,0,0,0,0
13240.5,0,-3,-2,1
13240.5,1,-2,-2,2
13240.5,3,0,0,6
13240.5,7,4,4,8
13240.5,10,10,10,9
13240.5,9,11,9,5
13240.5,4,6,4,1
13240.5,0,2,2,0
13240.5,0,0,0,-1
13240.5,0,1,0,0
13240.5,1,1,0,1
13240.5,1,0,0,2
13240.5,4,2,1,3
13240.5,4,4,3,4
13240.5,5,6,4,3
13240.5,5,6,4,3
13240.5,4,4,3,2
13240.5,4,5,4,0
13240.5,2,7,5,0
13240.5,0,5,3,-1
13240.5,-1,1,0,-1
13240.5,-2,-1,-1,-1
13240.5,-1,-3,-2,0
13240.5,1,-1,-2,2
13240.5,4,1,1,4
13240.5,5,3,2,6
13240.5,7,5,5,7
13240.5,7,5,5,7
13240.5,7,7,6,5
13240.5,3,3,2,1
13240.5,1,2,2,2
13240.5,5,8,7,5
13240.5,6,10,6,1
13240.5,2,3,1,0
13240.5,-1,-2,-4,-2
13240.5,0,-2,-3,0
13240.5,2,0,0,1
13240.5,3,1,0,1
13240.5,2,-1,-1,3
13240.5,3,-1,0,6
13240.5,7,2,1,7
13240.5,9,5,4,8
13240.5,9,8,6,5
13240.5,7,10,9,5
13240.5,6,11,8,2
13240.5,3,7,5,-1
13240.5,0,5,3,-3
13240.5,-1,6,3,-4
13240.5,-6,-4,-4,-5
13240.5,-4,-3,-2,0
13240.5,3,3,3,3
13240.5,4,4,3,2
13240.5,3,2,2,1
13240.5,2,3,3,4
13240.5,5,4,2,3
13240.5,4,3,2,1
13240.5,2,3,2,2
13240.5,2,3,2,2
13240.5,4,5,5,3
13240.5,5,7,6,3
13240.5,3,7,6,1
13240.5,0,1,0,-1
13240.5,-1,-2,-2,0
13240.5,0,-2,-1,2
13240.5,3,0,0,4
13240.5,5,2,1,5
13240.5,5,2,1,5
13240.5,6,5,4,6
13240.5,7,7,6,5
13240.5,6,6,4,4
13240.5,4,5,3,2
13240.5,3,4,3,1
13240.5,2,5,5,1
13240.6,1,4,3,1
13240.6,0,-1,0,0
13240.6,0,-2,-2,0
13240.6,2,2,1,1
13240.6,2,4,3,3
13240.6,3,3,2,3
13240.6,4,3,2,3
13240.6,4,3,2,2
13240.6,4,4,2,2
13240.6,5,9,7,3
13240.6,5,10,8,2
13240.6,2,3,3,0
13240.6,0,0,-1,-2
13240.6,0,0,-1,-2
13240.6,0,0,-1,0
13240.6,1,2,2,2
13240.6,4,4,4,4
13240.6,5,4,3,3
13240.6,3,3,1,1
13240.6,3,4,3,1
13240.6,3,5,4,1
13240.6,2,5,4,2
13240.6,2,4,3,0
13240.6,1,2,2,0
13240.6,1,2,2,1
13240.6,2,3,3,2
13240.6,0,-1,0,2
13240.6,2,-2,-2,3
13240.6,4,1,0,4
13240.6,6,3,2,4
13240.6,5,3,3,5
13240.6,6,4,4,6
13240.6,8,7,6,6
13240.6,7,6,4,2
13240.6,2,2,1,1
13240.6,1,2,1,1
13240.6,3,3,2,2
13240.6,4,4,3,1
13240.6,3,4,2,0
13240.6,0,2,1,-1
13240.6,0,3,3,0
13240.6,2,6,5,3
13240.6,1,1,1,0
13240.6,0,-2,-2,0
13240.6,0,-2,-2,2
13240.6,4,2,1,4
13240.6,6,6,5,5
13240.6,9,11,9,6
13240.6,8,11,9,4
13240.6,3,4,1,-1
13240.6,0,0,-1,-2
13240.6,-2,-2,-3,-1
13240.6,0,0,0,1
13240.6,2,2,2,2
13240.6,4,5,4,3
13240.6,4,5,4,3
13240.6,3,5,4,2
13240.6,3,6,5,1
13240.6,1,4,4,1
13240.6,1,2,2,1
13240.6,0,1,0,1
13240.6,1,0,0,1
13240.6,0,-3,-1,2
13240.6,0,-6,-4,6
13240.6,6,-2,-2,9
13240.6,10,2,2,10
13240.6,12,6,4,7
13240.6,10,9,6,4
13240.6,8,11,8,1
13240.6,4,12,10,0
13240.6,3,16,13,-2
13240.6,-4,5,4,-7
13240.6,-8,-1,-1,-6
13240.6,-6,-2,-1,-3
13240.6,-1,1,1,-1
13240.6,0,2,4,6
13240.6,6,4,5,10
13240.6,10,5,3,8
13240.6,8,3,1,3
13240.6,4,0,-2,-1
13240.6,-1,-5,-6,-3
13240.6,-1,-2,-3,0
13240.6,2,1,1,4
13240.6,5,3,1,6
13240.6,8,6,5,6
13240.6,7,5,3,3
13240.6,5,5,3,3
13240.6,4,4,3,2
13240.6,5,9,8,3
13240.6,4,10,7,0
13240.6,0,4,4,-2
13240.6,-2,0,0,-2
13240.6,-1,0,0,-2
13240.6,-2,-3,-2,0
13240.6,-3,-11,-8,1
13240.6,0,-9,-8,5
13240.6,7,-3,-3,9
13240.6,14,11,9,13
13240.6,18,21,18,13
13240.6,14,17,14,8
13240.6,7,11,9,1
13240.6,0,3,2,-3
13240.6,-4,-2,-2,-4
13240.6,-5,-4,-3,-4
13240.6,-4,-2,-1,0
13240.6,0,1,0,1
13240.6,3,5,3,1
13240.6,3,6,4,1
13240.6,1,4,3,2
13240.6,2,2,2,3
13240.6,3,2,0,3
13240.6,5,8,6,4
13240.6,5,8,6,2
13240.6,1,2,1,0
13240.6,1,1,0,2
13240.6,3,2,1,2
13240.6,2,0,-1,0
13240.6,0,-3,-3,1
13240.6,2,-1,-1,4
13240.6,6,2,2,7
13240.6,8,3,2,6
13240.6,8,2,1,4
13240.6,6,3,1,3
13240.6,6,6,5,4
13240.6,8,14,12,6
13240.6,5,8,6,0
13240.6,0,2,1,-2
13240.6,-1,1,0,-4
13240.6,-3,0,0,-2
13240.6,-2,1,0,0
13240.6,0,2,2,1
13240.6,0,2,2,0
13240.6,1,2,1,2
13240.6,2,2,2,2
13240.6,4,3,3,4
13240.6,5,6,5,5
13240.6,7,7,6,4
13240.6,5,5,4,1
13240.6,1,1,0,1
13240.6,0,-1,-1,1
13240.6,2,0,0,2
13240.6,3,2,2,3
13240.6,5,6,5,3
13240.6,3,4,3,2
13240.6,3,4,3,3
13240.6,2,1,0,2
13240.6,2,1,0,2
13240.6,4,3,2,3
13240.6,5,5,4,2
13240.6,4,5,3,2
13240.6,3,4,3,2
13240.6,3,2,1,0
13240.6,1,2,1,0
13240.6,0,0,-1,1
13240.6,1,0,-1,2
13240.6,4,2,0,3
13240.6,5,3,2,3
13240.6,6,5,4,3
13240.6,5,5,3,2
13240.6,4,4,3,2
13240.6,7,13,11,3
13240.6,3,10,8,0
13240.6,-1,3,2,-2
13240.6,-3,0,0,-2
13240.6,-2,1,1,-2
13240.6,-1,2,1,-1
13240.6,-1,1,2,0
13240.6,1,3,3,2
13240.6,2,3,3,2
13240.6,1,0,-1,1
13240.6,0,-1,-1,3
13240.6,3,0,0,5
13240.6,7,3,3,7
13240.6,8,5,3,7
13240.7,7,2,1,5
13240.7,6,2,1,5
13240.7,7,5,3,6
13240.7,8,10,8,6
13240.7,7,8,6,2
13240.7,2,4,3,0
13240.7,-1,-1,-1,-1
13240.7,0,0,0,0
13240.7,1,3,3,1
13240.7,2,3,2,0
13240.7,1,3,2,0
13240.7,1,1,1,0
13240.7,1,2,1,0
13240.7,1,2,0,1
13240.7,4,4,3,4
13240.7,4,4,2,2
13240.7,4,4,3,3
13240.7,4,2,1,2
13240.7,3,2,0,0
13240.7,1,1,1,1
13240.7,2,2,2,3
13240.7,4,3,3,3
13240.7,3,3,2,1
13240.7,3,3,3,2
13240.7,5,7,6,3
13240.7,4,7,6,2
13240.7,2,3,2,0
13240.7,0,0,0,0
13240.7,0,-1,-1,0
13240.7,0,-2,-1,1
13240.7,2,0,2,6
13240.7,7,5,4,7
13240.7,9,8,7,6
13240.7,6,7,5,2
13240.7,3,4,2,1
13240.7,2,3,2,1
13240.7,2,3,2,1
13240.7,2,3,3,0
13240.7,2,3,3,0
13240.7,3,7,5,0
13240.7,2,7,6,0
13240.7,0,4,3,-1
13240.7,0,3,2,-1
13240.7,-1,-2,-2,-3
13240.7,-2,-6,-5,0
13240.7,0,-5,-4,4
13240.7,4,-3,-2,6
13240.7,9,3,3,9
13240.7,12,11,8,9
13240.7,11,10,7,6
13240.7,7,5,3,3
13240.7,5,5,4,2
13240.7,3,5,4,0
13240.7,1,3,1,-1
13240.7,-1,-1,-2,-1
13240.7,-1,-4,-4,0
13240.7,1,-1,-1,2
13240.7,4,2,2,2
13240.7,4,5,4,3
13240.7,5,8,7,4
13240.7,6,8,6,3
13240.7,2,6,4,1
13240.7,0,2,2,0
13240.7,-2,-1,-1,0
13240.7,-1,-3,-2,2
13240.7,4,0,0,5
13240.7,6,1,1,6
13240.7,7,1,0,6
13240.7,7,1,1,7
13240.7,9,5,3,7
13240.7,9,6,4,5
13240.7,7,8,6,4
13240.7,7,13,10,0
13240.7,5,16,12,-1
13240.7,-2,6,4,-5
13240.7,-6,-1,-1,-7
13240.7,-6,-3,-3,-5
13240.7,-4,-3,-2,-3
13240.7,-2,0,0,0
13240.7,1,4,4,3
13240.7,6,6,6,6
13240.7,6,7,4,2
13240.7,3,3,1,0
13240.7,2,2,1,2
13240.7,4,5,4,3
13240.7,5,7,5,3
13240.7,4,4,3,2
13240.7,2,2,0,0
13240.7,1,1,0,0
13240.7,1,1,1,2
13240.7,2,0,0,3
13240.7,2,0,0,4
13240.7,5,1,1,4
13240.7,6,5,5,5
13240.7,6,6,6,4
13240.7,5,4,4,4
13240.7,3,3,2,2
13240.7,2,1,0,0
13240.7,1,1,0,1
13240.7,2,1,1,2
13240.7,4,4,3,3
13240.7,5,7,6,4
13240.7,6,9,7,3
13240.7,4,6,4,0
13240.7,0,3,2,0
13240.7,0,3,2,0
13240.7,0,1,0,0
13240.7,-1,-2,-3,-1
13240.7,-2,-4,-4,0
13240.7,2,-2,-2,4
13240.7,7,5,4,7
13240.7,9,7,6,7
13240.7,7,4,3,6
13240.7,7,4,3,4
13240.7,5,4,3,3
13240.7,3,2,1,2
13240.7,4,3,1,2
13240.7,5,4,2,1
13240.7,3,5,3,1
13240.7,3,5,3,1
13240.7,2,5,4,0
13240.7,0,4,3,0
13240.7,0,2,1,0
13240.7,0,1,0,-1
13240.7,0,1,0,-1
13240.7,0,1,0,0
13240.7,0,0,0,1
13240.7,3,3,3,5
13240.7,5,7,6,4
13240.7,5,6,4,2
13240.7,2,4,3,1
13240.7,0,0,0,1
13240.7,1,0,0,2
13240.7,3,1,0,4
13240.7,3,-1,-1,3
13240.7,4,0,0,5
13240.7,9,9,7,7
13240.7,10,14,11,7
13240.7,8,16,13,3
13240.7,1,6,5,-2
13240.7,-5,-4,-5,-6
13240.7,-7,-9,-7,-2
13240.7,-3,-7,-6,0
13240.7,1,-3,-2,5
13240.7,7,4,5,8
13240.7,12,11,10,9
13240.7,10,10,8,6
13240.7,5,4,3,1
13240.7,1,0,0,0
13240.7,0,-2,-2,0
13240.7,1,-1,-1,1
13240.7,3,2,1,3
13240.7,8,10,8,5
13240.7,8,14,10,2
13240.7,4,13,8,0
13240.7,1,9,6,-3
13240.7,0,12,9,-3
13240.7,-5,0,0,-7
13240.7,-11,-12,-11,-8
13240.7,-9,-17,-14,-2
13240.7,0,-9,-6,6
13240.7,8,2,3,10
13240.7,13,10,9,11
13240.7,12,11,10,11
13240.7,12,10,9,8
13240.7,8,6,5,3
13240.7,3,3,1,0
13240.7,0,0,0,0
13240.7,1,2,2,2
13240.7,2,3,3,3
13240.7,3,4,2,0
13240.7,1,1,0,0
13240.7,1,3,2,0
13240.8,2,5,4,2
13240.8,3,5,4,2
13240.8,2,4,2,0
13240.8,1,2,1,0
13240.8,0,1,1,0
13240.8,0,1,2,2
13240.8,1,-1,-2,0
13240.8,1,0,0,1
13240.8,2,1,0,2
13240.8,2,2,2,3
13240.8,4,2,3,7
13240.8,9,9,8,9
13240.8,11,14,11,7
13240.8,12,20,16,4
13240.8,7,19,16,3
13240.8,1,6,6,1
13240.8,0,-2,-4,-4
13240.8,-7,-13,-14,-9
13240.8,-9,-17,-17,-8
13240.8,-7,-13,-12,-3
13240.8,0,-5,-3,5
13240.8,7,3,4,10
13240.8,12,8,7,12
13240.8,13,10,8,10
13240.8,10,8,6,7
13240.8,7,5,4,4
13240.8,5,5,4,4
13240.8,5,6,4,1
13240.8,3,6,5,0
13240.8,1,7,6,-1
13240.8,-1,4,4,-2
13240.8,-2,2,2,-2
13240.8,-1,1,1,-3
13240.8,-3,0,0,-1
13240.8,-1,1,1,0
13240.8,1,2,5,6
13240.8,5,4,4,6
13240.8,6,2,2,4
13240.8,4,1,0,3
13240.8,2,-2,-2,3
13240.8,5,1,1,6
13240.8,7,4,2,6
13240.8,9,9,6,5
13240.8,7,11,8,4
13240.8,6,10,9,1
13240.8,2,6,3,-1
13240.8,-1,1,0,-2
13240.8,-3,-3,-4,-3
13240.8,-3,-6,-6,-1
13240.8,0,-2,-2,3
13240.8,4,0,0,4
13240.8,13,21,16,8
13240.8,8,14,12,4
13240.8,-1,-2,-3,0
13240.8,-1,-4,-4,0
13240.8,1,0,-1,0
13240.8,1,0,0,1
13240.8,2,2,3,3
13240.8,5,6,5,5
13240.8,6,6,5,3
13240.8,3,3,2,0
13240.8,0,1,0,0
13240.8,1,6,6,3
13240.8,5,11,10,4
13240.8,5,12,10,1
13240.8,0,8,5,-3
13240.8,-4,0,-1,-6
13240.8,-7,-6,-6,-4
13240.8,-3,-3,-1,2
13240.8,2,0,0,5
13240.8,3,-8,-7,4
13240.8,6,0,1,9
13240.8,14,15,13,12
13240.8,11,9,9,8
13240.8,5,-2,-1,4
13240.8,4,-5,-5,2
13240.8,4,-1,-1,4
13240.8,6,7,5,5
13240.8,8,9,8,6
13240.8,7,9,8,4
13240.8,4,4,2,0
13240.8,0,0,-1,-3
13240.8,-3,-4,-5,-3
13240.8,-1,-1,-1,1
13240.8,4,3,3,4
13240.8,6,4,4,3
13240.8,4,4,2,1
13240.8,2,3,3,1
13240.8,3,6,5,3
13240.8,3,5,4,3
13240.8,3,3,1,1
13240.8,2,0,-1,-1
13240.8,0,-2,-3,0
13240.8,2,0,0,2
13240.8,4,3,3,5
13240.8,10,13,10,5
13240.8,9,18,14,2
13240.8,-1,3,1,-3
13240.8,-4,0,0,-1
13240.8,-3,-1,0,0
13240.8,0,1,2,0
13240.8,3,5,4,1
13240.8,1,5,6,2
13240.8,2,4,5,2
13240.8,1,3,3,1
13240.8,1,2,1,0
13240.8,0,0,-1,0
13240.8,1,0,0,2
13240.8,5,6,6,5
13240.8,6,5,3,5
13240.8,5,2,1,3
13240.8,4,1,0,2
13240.8,3,2,1,3
13240.8,5,3,1,3
13240.8,6,6,4,3
13240.8,5,6,4,2
13240.8,5,7,5,1
13240.8,2,5,4,0
13240.8,0,2,1,-1
13240.8,0,3,1,0
13240.8,0,3,2,0
13240.8,0,-1,-1,0
13240.8,-1,-7,-6,1
13240.8,2,-4,-4,4
13240.8,7,2,2,7
13240.8,10,9,7,8
13240.8,10,10,8,7
13240.8,7,6,5,4
13240.8,4,4,3,2
13240.8,2,2,0,0
13240.8,0,0,0,-1
13240.8,0,1,1,1
13240.8,2,5,3,2
13240.8,3,5,3,0
13240.8,2,5,5,1
13240.8,1,3,4,1
13240.8,0,2,3,1
13240.8,1,2,2,1
13240.8,3,4,3,1
13240.8,2,4,3,0
13240.8,0,-2,-3,0
13240.8,0,0,0,4
13240.8,6,5,5,6
13240.8,6,6,4,4
13240.8,3,1,0,3
13240.8,1,-2,-2,3
13240.8,4,0,1,5
13240.8,7,7,5,6
13240.8,7,7,5,4
13240.8,3,4,2,1
13240.8,2,3,2,1
13240.8,1,0,0,2
13240.8,2,-1,-2,0
13240.8,1,-3,-4,1
13240.8,3,0,0,4
13240.8,8,6,5,7
13240.8,10,9,7,5
13240.8,6,7,4,3
13240.8,6,9,6,0
13240.8,1,7,6,-1
13240.8,-3,-1,-1,-2
13240.8,-3,-3,-3,-1
13240.8,0,0,0,0
13240.8,3,6,5,2
13240.8,4,9,7,1
13240.8,0,3,2,-1
13240.8,0,4,3,-1
13240.8,-1,3,2,-2
13240.8,-1,3,2,-2
13240.8,0,7,6,0
13240.8,1,8,8,2
13240.8,1,6,7,4
13240.8,2,2,3,4
13240.8,6,5,7,9
13240.8,9,8,9,11
13240.9,10,5,3,6
13240.9,5,0,0,1
13240.9,1,-4,-6,-3
13240.9,-3,-10,-10,-5
13240.9,-7,-16,-13,0
13240.9,0,-7,-5,7
13240.9,13,10,10,14
13240.9,16,16,12,11
13240.9,10,10,7,5
13240.9,5,6,3,2
13240.9,2,4,3,3
13240.9,4,4,3,1
13240.9,2,2,0,0
13240.9,1,2,0,-1
13240.9,0,3,1,0
13240.9,1,3,1,0
13240.9,2,4,2,1
13240.9,2,3,2,0
13240.9,0,1,1,0
13240.9,1,2,2,1
13240.9,3,4,3,2
13240.9,3,3,2,1
13240.9,3,3,2,2
13240.9,1,2,0,1
13240.9,1,2,0,2
13240.9,4,4,3,3
13240.9,5,5,5,4
13240.9,5,6,4,4
13240.9,4,6,4,2
13240.9,3,5,5,1
13240.9,3,7,6,2
13240.9,1,7,6,0
13240.9,-2,2,1,-1
13240.9,-4,-4,-3,-1
13240.9,-2,-6,-4,1
13240.9,1,-4,-4,2
13240.9,3,-3,-2,5
13240.9,8,4,3,9
13240.9,13,13,12,11
13240.9,14,19,15,9
13240.9,9,12,8,2
13240.9,0,2,0,-3
13240.9,-3,-1,-3,-4
13240.9,-3,-3,-3,-2
13240.9,-1,-2,-2,1
13240.9,3,0,0,2
13240.9,4,3,3,4
13240.9,4,5,4,3
13240.9,5,6,5,3
13240.9,5,5,4,2
13240.9,2,2,1,0
13240.9,1,0,-1,0
13240.9,0,-2,-2,1
13240.9,3,2,2,4
13240.9,7,5,4,4
13240.9,6,6,5,2
13240.9,3,5,4,2
13240.9,4,6,5,2
13240.9,3,4,4,1
13240.9,1,2,1,0
13240.9,0,1,0,-1
13240.9,0,0,0,0
13240.9,0,-1,0,2
13240.9,2,0,1,4
13240.9,5,3,3,5
13240.9,6,4,4,5
13240.9,6,6,6,5
13240.9,6,5,4,4
13240.9,3,1,1,3
13240.9,3,-2,-2,2
13240.9,4,1,0,4
13240.9,7,10,7,3
13240.9,8,18,15,3
13240.9,4,17,13,0
13240.9,-2,4,2,-4
13240.9,-7,-4,-5,-8
13240.9,-8,-8,-8,-7
13240.9,-5,-6,-6,-2
13240.9,0,-1,0,3
13240.9,5,2,2,7
13240.9,9,5,4,8
13240.9,7,1,0,6
13240.9,7,0,0,7
13240.9,7,1,1,7
13240.9,12,12,10,10
13240.9,15,21,17,6
13240.9,2,4,2,-1
13240.9,-1,0,-2,-4
13240.9,-2,0,0,-3
13240.9,1,6,4,-1
13240.9,4,17,12,-2
13240.9,-2,9,7,-3
13240.9,-5,1,0,-5
13240.9,-6,-4,-4,-5
13240.9,-8,-12,-11,-4
13240.9,-7,-16,-12,1
13240.9,3,-5,-3,10
13240.9,15,10,9,16
13240.9,18,15,13,14
13240.9,14,12,10,8
13240.9,7,4,4,5
13240.9,4,2,1,3
13240.9,4,3,1,3
13240.9,3,4,2,1
13240.9,2,2,2,0
13240.9,1,2,2,0
13240.9,0,0,0,0
13240.9,1,0,0,1
13240.9,3,3,3,1
13240.9,3,4,3,1
13240.9,1,2,2,1
13240.9,2,1,1,3
13240.9,3,1,0,2
13240.9,3,1,0,2
13240.9,4,5,4,3
13240.9,4,5,4,4
13240.9,5,5,5,4
13240.9,4,5,3,2
13240.9,3,4,2,0
13240.9,0,3,1,0
13240.9,0,0,0,1
13240.9,0,0,-1,2
13240.9,4,1,0,2
13240.9,4,2,1,1
13240.9,3,3,2,3
13240.9,4,5,4,3
13240.9,6,9,8,5
13240.9,5,7,5,2
13240.9,2,2,1,-2
13240.9,-1,0,0,-1
13240.9,-1,0,0,0
13240.9,1,4,3,3
13240.9,3,3,2,2
13240.9,2,1,0,2
13240.9,3,4,3,2
13240.9,4,5,5,3
13240.9,3,2,2,3
13240.9,3,2,1,2
13240.9,2,0,0,0
13240.9,0,0,1,2
13240.9,4,5,6,6
13240.9,7,13,12,5
13240.9,6,10,8,2
13240.9,0,1,0,-1
13240.9,-2,-2,-2,-1
13240.9,2,2,0,1
13240.9,4,4,2,2
13240.9,3,2,0,0
13240.9,2,0,0,1
13240.9,3,2,1,2
13240.9,4,4,2,1
13240.9,3,4,1,1
13240.9,3,5,4,3
13240.9,3,4,3,3
13240.9,4,3,2,3
13240.9,4,1,0,2
13240.9,2,0,-2,0
13240.9,2,0,0,4
13240.9,6,6,6,7
13240.9,8,8,6,5
13240.9,4,2,0,0
13240.9,0,-1,-1,0
13240.9,1,2,2,3
13240.9,4,5,4,4
13240.9,4,4,3,2
13240.9,2,0,0,1
13240.9,0,-3,-3,0
13240.9,3,2,2,3
13240.9,5,6,6,5
13240.9,5,5,5,3
13240.9,5,8,7,3
13240.9,6,10,8,1
13240.9,0,3,3,-2
13240.9,-2,0,0,-1
13241,0,2,2,0
13241,1,6,5,0
13241,1,7,6,0
13241,0,3,3,0
13241,0,0,0,0
13241,-1,-5,-6,0
13241,-1,-9,-8,2
13241,0,-11,-10,6
13241,9,-1,0,13
13241,18,10,9,16
13241,22,21,17,14
13241,18,25,19,7
13241,3,6,3,-2
13241,-2,-1,-2,-5
13241,-4,-1,-2,-5
13241,-4,-1,-2,-4
13241,-3,-1,-2,-3
13241,-2,0,0,-1
13241,0,1,1,0
13241,1,2,1,1
13241,2,3,3,2
13241,4,5,5,5
13241,6,6,6,6
13241,6,7,6,4
13241,5,5,2,-1
13241,1,5,2,-1
13241,0,5,4,0
13241,1,7,6,1
13241,1,6,5,0
13241,0,2,1,0
13241,0,0,0,0
13241,1,0,1,3
13241,6,5,6,11
13241,12,6,5,12
13241,9,-2,-3,6
13241,5,-3,-5,2
13241,5,1,0,2
13241,3,2,0,1
13241,1,1,0,0
13241,1,2,1,1
13241,2,2,1,1
13241,2,3,2,0
13241,2,4,3,2
13241,3,6,5,3
13241,3,5,4,2
13241,2,2,2,1
13241,2,2,1,2
13241,3,3,1,0
13241,1,3,3,2
13241,3,3,2,2
13241,4,5,2,2
13241,3,2,0,0
13241,1,0,-1,0
13241,3,3,2,3
13241,5,6,3,2
13241,4,6,4,3
13241,4,4,3,2
13241,4,5,4,1
13241,2,6,4,0
13241,0,-1,-1,0
13241,-1,-6,-5,0
13241,1,-3,-2,4
13241,5,1,1,6
13241,5,4,3,6
13241,6,4,4,7
13241,7,5,4,7
13241,9,8,8,7
13241,8,13,11,3
13241,4,11,9,0
13241,-2,2,1,-3
13241,-3,0,0,-2
13241,-3,-2,-3,-4
13241,-3,-4,-3,-3
13241,-2,-4,-4,0
13241,2,0,0,6
13241,8,5,4,8
13241,9,5,4,7
13241,7,3,2,4
13241,6,4,3,5
13241,7,6,4,6
13241,8,8,6,5
13241,7,9,6,2
13241,4,8,5,-1
13241,2,14,10,-1
13241,0,11,9,-3
13241,-5,3,1,-6
13241,-7,-4,-5,-8
13241,-9,-11,-10,-5
13241,-5,-9,-7,0
13241,2,-1,0,7
13241,9,4,4,9
13241,10,5,4,9
13241,10,7,5,8
13241,9,9,6,6
13241,9,11,8,4
13241,5,9,7,2
13241,1,3,1,-1
13241,0,0,-1,-1
13241,-2,-3,-4,-1
13241,0,-4,-4,0
13241,2,0,1,7
13241,9,10,11,11
13241,10,10,9,6
13241,3,3,2,2
13241,1,0,0,0
13241,0,1,0,0
13241,1,1,1,1
13241,2,3,2,2
13241,2,3,3,2
13241,2,2,1,1
13241,2,2,2,2
13241,3,4,3,3
13241,3,5,4,2
13241,4,5,4,2
13241,3,5,3,1
13241,3,5,4,1
13241,2,5,4,0
13241,2,6,4,0
13241,1,4,2,0
13241,0,3,1,-1
13241,0,2,0,0
13241,0,3,2,1
13241,1,1,0,1
13241,0,-4,-4,1
13241,2,-4,-3,4
13241,6,2,1,5
13241,9,9,8,7
13241,7,9,7,5
13241,6,5,3,4
13241,3,2,1,3
13241,2,0,0,0
13241,1,1,0,0
13241,3,7,5,3
13241,5,12,11,5
13241,4,6,5,1
13241,0,2,1,-2
13241,-1,0,-1,-3
13241,-2,0,0,0
13241,1,4,3,2
13241,3,5,5,3
13241,2,2,1,0
13241,0,-2,-1,1
13241,-1,-7,-5,3
13241,4,-2,-2,7
13241,9,1,1,9
13241,11,6,5,8
13241,10,7,6,8
13241,9,7,5,5
13241,6,7,6,4
13241,5,8,5,1
13241,2,5,3,-2
13241,0,4,2,-2
13241,-2,1,0,-2
13241,-1,1,0,-1
13241,-1,0,-1,-2
13241,-1,-2,-3,0
13241,0,-4,-4,1
13241,0,-7,-5,6
13241,8,0,0,9
13241,13,8,7,10
13241,12,12,9,8
13241,10,13,11,6
13241,6,10,7,1
13241,2,6,4,-2
13241,0,8,6,-4
13241,-4,1,0,-6
13241,-7,-3,-3,-5
13241,-4,-3,-2,-1
13241,-1,-3,-3,0
13241,0,-3,-2,2
13241,6,8,8,8
13241,10,14,12,8
13241,8,10,9,5
13241,4,5,4,2
13241,1,1,0,0
13241.1,0,0,0,0
13241.1,0,1,1,1
13241.1,2,3,2,2
13241.1,3,4,3,2
13241.1,2,2,1,1
13241.1,1,0,0,1
13241.1,2,2,2,3
13241.1,6,5,5,5
13241.1,5,6,4,3
13241.1,3,4,2,1
13241.1,2,3,1,0
13241.1,1,1,1,2
13241.1,3,1,0,2
13241.1,4,2,0,2
13241.1,4,2,0,2
13241.1,5,5,4,4
13241.1,6,9,7,4
13241.1,4,6,4,1
13241.1,2,5,3,0
13241.1,0,3,2,-1
13241.1,-1,0,-1,-2
13241.1,-3,-4,-2,0
13241.1,0,-2,-2,2
13241.1,3,-3,-3,4
13241.1,6,1,0,5
13241.1,7,1,1,6
13241.1,7,3,3,8
13241.1,10,8,7,8
13241.1,11,14,12,6
13241.1,9,16,13,2
13241.1,-1,0,0,-2
13241.1,-4,-5,-4,-3
13241.1,-1,0,-1,0
13241.1,0,2,1,0
13241.1,2,4,3,2
13241.1,3,6,5,2
13241.1,2,4,4,2
13241.1,1,1,2,0
13241.1,0,0,0,0
13241.1,0,1,0,2
13241.1,5,8,8,5
13241.1,6,9,7,3
13241.1,4,5,4,1
13241.1,3,6,4,0
13241.1,1,7,5,0
13241.1,0,3,1,-1
13241.1,-2,-3,-3,0
13241.1,0,-6,-5,0
13241.1,3,-1,-2,2
13241.1,4,0,0,4
13241.1,6,3,2,7
13241.1,9,6,5,9
13241.1,9,5,3,5
13241.1,6,4,1,3
13241.1,3,1,0,2
13241.1,4,5,3,3
13241.1,5,6,5,4
13241.1,4,5,3,2
13241.1,2,3,2,1
13241.1,2,2,2,0
13241.1,0,1,0,0
13241.1,1,2,2,1
13241.1,2,3,2,1
13241.1,2,3,2,0
13241.1,1,3,2,0
13241.1,0,2,2,2
13241.1,1,1,2,2
13241.1,2,0,0,2
13241.1,2,0,0,3
13241.1,4,3,3,5
13241.1,7,7,6,6
13241.1,6,6,6,5
13241.1,5,4,4,2
13241.1,4,5,4,1
13241.1,1,3,2,0
13241.1,0,1,0,-1
13241.1,1,4,2,0
13241.1,1,4,3,0
13241.1,0,3,2,0
13241.1,0,2,0,0
13241.1,0,1,0,-1
13241.1,0,1,1,1
13241.1,2,1,1,4
13241.1,4,0,0,5
13241.1,6,1,1,6
13241.1,8,7,7,8
13241.1,9,9,8,6
13241.1,6,8,8,4
13241.1,4,8,6,1
13241.1,1,3,1,0
13241.1,0,0,-2,-2
13241.1,0,0,-2,-5
13241.1,-2,0,-2,-4
13241.1,-2,0,-1,-1
13241.1,1,4,2,2
13241.1,3,4,3,3
13241.1,3,4,3,3
13241.1,5,4,4,6
13241.1,6,6,7,8
13241.1,9,9,10,13
13241.1,13,9,8,10
13241.1,8,1,-1,3
13241.1,2,-3,-4,-1
13241.1,0,-2,-4,-3
13241.1,-1,-2,-3,-3
13241.1,-2,0,0,0
13241.1,1,3,2,2
13241.1,3,5,5,2
13241.1,3,6,5,3
13241.1,4,5,4,2
13241.1,2,3,2,1
13241.1,2,2,1,1
13241.1,3,2,1,2
13241.1,3,2,1,3
13241.1,4,2,0,3
13241.1,3,2,1,3
13241.1,5,5,5,4
13241.1,6,7,6,5
13241.1,5,4,3,3
13241.1,3,3,0,0
13241.1,2,2,1,0
13241.1,1,2,0,0
13241.1,2,4,3,2
13241.1,3,4,3,2
13241.1,2,2,1,0
13241.1,0,0,0,0
13241.1,0,0,0,2
13241.1,3,3,2,3
13241.1,5,6,5,5
13241.1,6,7,5,3
13241.1,2,3,2,0
13241.1,0,1,1,0
13241.1,0,0,0,1
13241.1,1,1,0,3
13241.1,3,0,0,4
13241.1,5,1,0,4
13241.1,5,1,0,4
13241.1,5,0,1,6
13241.1,9,5,4,6
13241.1,9,7,5,5
13241.1,9,12,8,2
13241.1,7,20,17,3
13241.1,6,23,19,-1
13241.1,0,17,14,-8
13241.1,-14,-4,-4,-15
13241.1,-20,-21,-17,-12
13241.1,-10,-11,-10,-3
13241.1,0,-2,-2,0
13241.1,1,-2,-2,4
13241.1,3,-6,-6,6
13241.1,8,-2,-2,10
13241.1,13,3,1,12
13241.1,15,7,4,11
13241.1,16,13,11,13
13241.1,18,20,18,14
13241.1,14,17,14,10
13241.1,7,4,1,-1
13241.1,-4,-8,-8,-5
13241.1,-4,-5,-4,0
13241.1,0,-2,-3,-1
13241.1,0,0,0,0
13241.1,0,1,0,0
13241.1,1,5,4,0
13241.1,0,5,4,0
13241.1,0,0,0,2
13241.1,4,5,4,4
13241.1,6,9,7,3
13241.1,5,10,7,0
13241.1,-2,1,2,0
13241.1,-1,0,0,1
13241.1,1,1,1,1
13241.1,0,-2,-4,-1
13241.1,-1,-4,-4,-1
13241.2,1,-1,0,5
13241.2,9,11,11,12
13241.2,13,15,13,9
13241.2,7,7,5,2
13241.2,2,4,2,-1
13241.2,1,5,3,0
13241.2,0,2,2,1
13241.2,1,1,1,2
13241.2,2,0,-1,0
13241.2,0,-1,-1,0
13241.2,0,-3,-2,1
13241.2,3,3,2,4
13241.2,7,8,6,6
13241.2,7,8,5,2
13241.2,7,12,8,1
13241.2,0,4,3,-1
13241.2,-1,0,0,0
13241.2,2,3,1,1
13241.2,4,7,4,2
13241.2,0,0,-1,0
13241.2,0,-4,-3,2
13241.2,1,-3,-3,4
13241.2,3,-5,-6,3
13241.2,7,3,3,8
13241.2,12,14,11,7
13241.2,15,27,23,7
13241.2,15,42,35,2
13241.2,-4,14,11,-13
13241.2,-22,-17,-15,-20
13241.2,-22,-23,-19,-14
13241.2,-14,-19,-17,-5
13241.2,-6,-18,-15,3
13241.2,2,-14,-9,15
13241.2,20,5,7,26
13241.2,32,24,22,26
13241.2,26,22,18,14
13241.2,13,15,12,5
13241.2,5,8,7,3
13241.2,2,4,2,-1
13241.2,0,0,-1,-5
13241.2,-5,-5,-6,-7
13241.2,-7,-6,-5,-3
13241.2,-2,-2,-3,0
13241.2,1,-3,-3,4
13241.2,5,0,-1,6
13241.2,7,0,-2,5
13241.2,8,5,4,7
13241.2,12,14,12,10
13241.2,11,15,13,7
13241.2,7,12,10,2
13241.2,3,11,7,-3
13241.2,-4,2,0,-8
13241.2,-7,-1,-3,-7
13241.2,-5,-1,-3,-7
13241.2,-4,-1,-3,-6
13241.2,-4,0,0,-2
13241.2,0,4,5,1
13241.2,3,8,8,4
13241.2,3,6,6,4
13241.2,2,0,1,4
13241.2,4,1,1,5
13241.2,7,4,4,9
13241.2,10,6,7,15
13241.2,14,7,5,11
13241.2,11,3,1,4
13241.2,4,-1,-4,-3
13241.2,-1,-4,-5,-3
13241.2,-2,-1,-2,-1
13241.2,0,2,2,1
13241.2,3,5,5,4
13241.2,4,5,4,3
13241.2,4,3,2,1
13241.2,2,2,2,1
13241.2,3,4,3,2
13241.2,3,5,4,2
13241.2,4,5,4,2
13241.2,3,4,2,0
13241.2,1,2,0,0
13241.2,1,2,1,1
13241.2,3,3,2,2
13241.2,4,4,3,3
13241.2,4,4,3,2
13241.2,2,2,1,1
13241.2,2,3,2,1
13241.2,3,4,2,2
13241.2,5,4,3,2
13241.2,4,4,2,1
13241.2,3,3,1,0
13241.2,1,2,0,0
13241.2,2,2,0,1
13241.2,3,4,3,3
13241.2,3,3,2,2
13241.2,2,2,0,1
13241.2,1,1,0,2
13241.2,3,3,2,3
13241.2,4,4,3,3
13241.2,4,5,4,3
13241.2,3,5,4,2
13241.2,2,3,4,2
13241.2,2,4,3,1
13241.2,2,4,3,2
13241.2,2,3,2,1
13241.2,2,3,3,2
13241.2,2,2,2,2
13241.2,1,0,1,2
13241.2,3,1,0,2
13241.2,3,1,1,2
13241.2,3,3,2,2
13241.2,3,3,4,3
13241.2,3,4,5,3
13241.2,3,3,4,4
13241.2,3,3,2,2
13241.2,2,2,2,2
13241.2,3,3,3,3
13241.2,3,3,2,3
13241.2,4,1,0,1
13241.2,4,3,1,2
13241.2,5,4,1,1
13241.2,3,2,0,0
13241.2,2,3,1,1
13241.2,4,5,2,2
13241.2,5,6,4,1
13241.2,2,5,3,1
13241.2,1,1,0,0
13241.2,1,0,0,1
13241.2,3,2,0,2
13241.2,3,3,1,2
13241.2,3,3,2,2
13241.2,3,3,3,4
13241.2,5,6,4,4
13241.2,5,7,7,3
13241.2,3,3,3,1
13241.2,0,2,2,0
13241.2,0,0,0,0
13241.2,0,0,0,0
13241.2,1,2,1,2
13241.2,3,3,2,3
13241.2,4,3,1,4
13241.2,4,2,2,5
13241.2,5,2,0,4
13241.2,5,2,1,3
13241.2,8,9,7,6
13241.2,7,9,7,3
13241.2,2,4,2,0
13241.2,0,3,3,1
13241.2,1,3,3,1
13241.2,0,0,0,-2
13241.2,0,0,-1,0
13241.2,0,0,-1,0
13241.2,3,3,2,1
13241.2,3,5,3,1
13241.2,2,3,2,1
13241.2,3,2,1,1
13241.2,2,2,2,1
13241.2,2,3,2,0
13241.2,0,1,1,0
13241.2,0,3,3,1
13241.2,0,4,6,5
13241.2,4,4,4,4
13241.2,3,2,4,6
13241.2,5,2,2,5
13241.2,5,1,0,4
13241.2,6,4,4,7
13241.2,8,6,5,5
13241.2,5,5,5,4
13241.2,3,3,3,3
13241.2,2,3,2,3
13241.2,3,2,2,2
13241.2,4,5,4,3
13241.2,3,4,2,2
13241.2,3,2,0,0
13241.2,0,-2,-2,-2
13241.2,-1,-3,-3,-1
13241.2,0,0,0,0
13241.2,0,1,1,1
13241.3,3,3,3,4
13241.3,5,4,1,3
13241.3,5,4,1,2
13241.3,5,6,3,2
13241.3,7,9,6,3
13241.3,6,8,5,1
13241.3,3,5,0,0
13241.3,3,3,-1,-1
13241.3,3,4,0,0
13241.3,5,4,0,0
13241.3,5,4,2,3
13241.3,5,4,3,5
13241.3,6,4,4,5
13241.3,4,1,0,1
13241.3,1,-2,-3,-1
13241.3,0,0,0,1
13241.3,0,1,1,2
13241.3,1,0,0,0
13241.3,0,1,0,-3
13241.3,-1,4,4,0
13241.3,0,6,8,3
13241.3,2,7,9,5
13241.3,4,8,10,7
13241.3,6,9,11,8
13241.3,4,4,6,4
13241.3,0,0,1,0
13241.3,-2,-2,0,0
13241.3,0,0,0,1
13241.3,0,1,1,2
13241.3,1,3,5,6
13241.3,5,8,9,10
13241.3,9,10,12,13
13241.3,12,12,13,13
13241.3,11,7,5,5
13241.3,3,-1,-4,-1
13241.3,-4,-9,-10,-5
13241.3,-4,-10,-12,-7
13241.3,-5,-7,-7,-2
13241.3,-1,-3,-3,0
13241.3,1,1,0,1
13241.3,5,8,7,5
13241.3,8,10,6,4
13241.3,7,9,3,1
13241.3,6,9,4,-1
13241.3,4,10,5,0
13241.3,3,8,4,0
13241.3,3,6,2,0
13241.3,1,0,-3,-4
13241.3,0,-1,-4,-4
13241.3,-1,0,0,0
13241.3,2,4,2,2
13241.3,4,4,4,3
13241.3,3,2,3,3
13241.3,1,1,5,8
13241.3,4,2,5,10
13241.3,9,6,8,11
13241.3,12,10,12,13
13241.3,12,11,13,11
13241.3,8,9,9,5
13241.3,1,4,4,0
13241.3,-2,-1,-1,-5
13241.3,-6,-4,-3,-5
13241.3,-3,-2,-4,-2
13241.3,0,0,-3,0
13241.3,5,1,-4,-1
13241.3,4,1,-4,-2
13241.3,4,5,1,1
13241.3,6,8,6,4
13241.3,5,6,6,6
13241.3,5,5,6,7
13241.3,6,3,1,2
13241.3,3,0,-2,0
13241.3,2,-2,-6,-1
13241.3,2,0,-4,-2
13241.3,4,4,-1,-1
13241.3,2,2,0,-2
13241.3,0,0,-1,0
13241.3,0,0,0,-1
13241.3,0,5,7,5
13241.3,5,11,14,9
13241.3,6,11,11,6
13241.3,2,7,10,6
13241.3,3,6,7,6
13241.3,7,9,7,7
13241.3,6,5,3,3
13241.3,0,-4,-6,-3
13241.3,-5,-10,-10,-5
13241.3,-4,-5,-3,2
13241.3,3,2,2,6
13241.3,10,8,4,4
13241.3,5,5,5,4
13241.3,2,3,6,7
13241.3,5,6,7,4
13241.3,0,0,4,2
13241.3,-2,-2,1,1
13241.3,-2,0,6,9
13241.3,8,7,10,12
13241.3,10,6,4,6
13241.3,6,0,-5,0
13241.3,5,1,-6,-2
13241.3,8,7,-2,-4
13241.3,3,6,1,-2
13241.3,1,4,0,-5
13241.3,-3,-1,-5,-7
13241.3,-2,0,-4,-5
13241.3,0,1,-1,-3
13241.3,0,3,6,3
13241.3,0,4,10,7
13241.3,0,2,7,7
13241.3,4,8,12,13
13241.3,14,17,17,15
13241.3,16,19,17,13
13241.3,12,13,10,7
13241.3,8,6,0,-3
13241.3,0,-2,-9,-10
13241.3,-7,-6,-11,-13
13241.3,-11,-11,-12,-14
13241.3,-14,-10,-8,-9
13241.3,-10,-4,1,1
13241.3,-1,3,12,15
13241.3,14,12,16,25
13241.3,28,19,11,18
13241.3,21,12,2,6
13241.3,11,7,0,2
13241.3,11,10,0,-2
13241.3,4,3,-6,-11
13241.3,-7,-7,-11,-12
13241.3,-10,-8,-10,-8
13241.3,-7,-6,-6,-6
13241.3,-6,-4,0,0
13241.3,-2,0,5,5
13241.3,0,2,12,12
13241.3,2,4,15,16
13241.3,5,4,13,13
13241.3,5,3,11,11
13241.3,0,0,8,13
13241.3,7,4,11,12
13241.3,4,3,9,9
13241.3,1,1,7,6
13241.3,2,3,4,1
13241.3,2,4,1,-3
13241.3,0,4,-1,-4
13241.3,1,5,-1,-3
13241.3,7,8,0,0
13241.3,14,12,-1,0
13241.3,11,8,-5,-4
13241.3,6,5,-4,-1
13241.3,9,7,0,1
13241.3,9,8,0,-2
13241.3,0,-1,-8,-13
13241.3,-13,-10,-7,-13
13241.3,-19,-9,2,0
13241.3,-9,-1,10,9
13241.3,0,2,15,18
13241.3,10,7,13,19
13241.3,20,14,11,14
13241.3,15,11,9,12
13241.3,14,8,3,5
13241.3,9,4,-4,-2
13241.3,3,2,-6,-5
13241.3,3,3,-4,-3
13241.3,3,4,-5,-9
13241.3,-3,2,0,-7
13241.3,-6,1,3,-3
13241.3,-6,-1,3,2
13241.3,0,3,7,7
13241.3,7,8,8,7
13241.3,10,13,11,8
13241.3,10,10,6,2
13241.3,0,-3,-7,-9
13241.3,-9,-11,-13,-11
13241.3,-6,-7,-9,-2
13241.3,7,2,-3,1
13241.4,9,4,0,5
13241.4,9,6,7,14
13241.4,14,8,7,10
13241.4,9,5,4,3
13241.4,2,4,7,5
13241.4,0,4,12,10
13241.4,0,0,9,5
13241.4,-6,-4,5,0
13241.4,-12,-8,5,5
13241.4,-4,-3,5,8
13241.4,8,7,8,19
13241.4,32,25,8,12
13241.4,24,18,0,-1
13241.4,8,3,-11,-15
13241.4,-13,-14,-18,-23
13241.4,-30,-24,-12,-14
13241.4,-23,-14,3,2
13241.4,-6,6,24,25
13241.4,20,25,31,29
13241.4,27,27,23,17
13241.4,17,16,8,1
13241.4,1,0,-7,-11
13241.4,-11,-11,-15,-18
13241.4,-16,-12,-12,-12
13241.4,-6,-1,-2,0
13241.4,8,10,2,2
13241.4,10,9,0,-1
13241.4,2,2,-2,-6
13241.4,-10,-7,1,2
13241.4,-4,-3,9,14
13241.4,7,6,17,26
13241.4,26,20,22,33
13241.4,40,30,15,22
13241.4,35,23,1,6
13241.4,22,13,-10,-4
13241.4,18,8,-22,-19
13241.4,7,2,-27,-27
13241.4,-3,-5,-27,-27
13241.4,-8,-7,-21,-26
13241.4,-18,-13,-18,-27
13241.4,-29,-19,-11,-25
13241.4,-39,-21,2,-6
13241.4,-27,-9,22,17
13241.4,-4,8,32,25
13241.4,4,8,25,19
13241.4,1,4,21,22
13241.4,10,13,28,33
13241.4,24,21,27,31
13241.4,27,21,22,26
13241.4,27,23,19,16
13241.4,12,10,8,4
13241.4,0,1,3,-2
13241.4,-8,-5,-1,-4
13241.4,-9,-6,-2,-3
13241.4,-5,-4,-4,-1
13241.4,-1,-6,-7,0
13241.4,4,-5,-14,-2
13241.4,8,-2,-14,-7
13241.4,4,-1,-12,-8
13241.4,5,3,-7,-4
13241.4,8,6,-5,-9
13241.4,-2,2,-1,-8
13241.4,-5,4,9,1
13241.4,-1,5,10,5
13241.4,0,3,6,4
13241.4,4,5,8,11
13241.4,14,11,7,13
13241.4,19,13,2,6
13241.4,16,10,-2,-1
13241.4,8,8,0,0
13241.4,7,7,3,0
13241.4,0,-1,-2,-5
13241.4,-10,-10,-6,-10
13241.4,-19,-15,-4,-4
13241.4,-13,-8,1,2
13241.4,-2,1,10,10
13241.4,4,5,10,11
13241.4,11,12,11,11
13241.4,13,12,9,4
13241.4,0,0,5,3
13241.4,-3,-5,2,3
13241.4,-2,-4,3,8
13241.4,7,5,9,16
13241.4,19,16,14,20
13241.4,24,20,15,18
13241.4,22,15,4,6
13241.4,13,7,-6,-5
13241.4,8,3,-16,-12
13241.4,7,0,-27,-23
13241.4,3,-3,-33,-30
13241.4,0,0,-27,-26
13241.4,0,4,-17,-20
13241.4,-5,1,-5,-13
13241.4,-14,-4,4,5
13241.4,0,5,16,13
13241.4,0,3,17,10
13241.4,-10,-6,16,10
13241.4,-12,-7,18,19
13241.4,2,5,21,22
13241.4,13,14,21,20
13241.4,16,15,17,16
13241.4,13,11,8,10
13241.4,13,10,3,2
13241.4,7,4,-3,-5
13241.4,0,1,-5,-7
13241.4,0,4,1,0
13241.4,3,7,5,0
13241.4,0,3,3,-4
13241.4,-11,-7,-1,-3
13241.4,-7,-6,-1,2
13241.4,3,1,1,2
13241.4,0,0,6,7
13241.4,-2,-6,0,2
13241.4,-8,-10,0,4
13241.4,-4,-4,6,14
13241.4,14,11,13,20
13241.4,26,22,13,13
13241.4,20,18,4,0
13241.4,10,9,-6,-13
13241.4,-5,0,-9,-17
13241.4,-13,-6,-6,-4
13241.4,2,3,-4,-7
13241.4,-3,-1,-5,-6
13241.4,0,0,-1,-2
13241.4,-2,-1,0,-3
13241.4,-11,-9,1,-1
13241.4,-17,-13,8,17
13241.4,9,9,20,32
13241.4,35,30,24,29
13241.4,37,31,16,15
13241.4,23,19,5,0
13241.4,4,1,-7,-9
13241.4,-5,-8,-17,-17
13241.4,-9,-8,-15,-16
13241.4,-12,-11,-12,-15
13241.4,-14,-9,-3,0
13241.4,1,1,0,2
13241.4,4,3,2,4
13241.4,8,9,8,9
13241.4,13,15,13,8
13241.4,10,12,11,2
13241.4,-2,1,4,2
13241.4,2,3,3,5
13241.4,9,7,1,2
13241.4,7,6,3,7
13241.4,7,4,2,5
13241.4,4,-1,-2,-3
13241.4,-4,-6,-5,-7
13241.4,-10,-10,-4,-5
13241.4,-11,-6,3,3
13241.4,-1,3,12,13
13241.4,12,14,14,15
13241.4,19,21,18,20
13241.4,29,26,13,14
13241.4,24,17,0,0
13241.4,6,-3,-16,-21
13241.4,-29,-33,-26,-22
13241.4,-33,-32,-15,-7
13241.4,-14,-14,-2,4
13241.4,2,7,17,20
13241.4,17,20,26,26
13241.4,16,11,13,5
13241.4,-9,-6,6,0
13241.4,-10,-2,11,17
13241.4,23,25,16,18
13241.4,33,29,5,0
13241.4,12,10,-12,-14
13241.4,3,5,-15,-19
13241.4,3,7,-16,-23
13241.4,-3,1,-16,-24
13241.4,-10,0,-6,-16
13241.4,-14,1,9,-2
13241.4,-15,-1,18,4
13241.4,-23,-12,17,10
13241.5,-19,-14,18,27
13241.5,11,7,22,34
13241.5,29,21,24,30
13241.5,26,16,15,22
13241.5,23,12,5,10
13241.5,14,4,-6,0
13241.5,9,3,-7,0
13241.5,16,12,-3,0
13241.5,15,7,-11,-12
13241.5,0,-7,-28,-25
13241.5,-5,-6,-27,-27
13241.5,-7,-5,-21,-26
13241.5,-18,-10,-8,-10
13241.5,-8,0,10,11
13241.5,10,13,14,4
13241.5,-5,-1,7,6
13241.5,2,5,15,21
13241.5,24,23,22,26
13241.5,31,27,17,14
13241.5,17,14,6,0
13241.5,-3,-4,-7,-16
13241.5,-24,-22,-13,-13
13241.5,-22,-17,-2,1
13241.5,-5,-2,10,13
13241.5,6,5,11,11
13241.5,8,8,11,9
13241.5,6,9,13,10
13241.5,4,4,6,7
13241.5,7,7,6,5
13241.5,5,3,0,0
13241.5,1,0,-3,-2
13241.5,1,0,-3,0
13241.5,6,4,0,4
13241.5,11,8,1,4
13241.5,11,10,3,2
13241.5,7,7,0,-1
13241.5,1,-1,-7,-7
13241.5,-4,-5,-6,-5
13241.5,-5,-1,1,0
13241.5,-3,1,7,7
13241.5,6,7,8,7
13241.5,8,7,6,6
13241.5,6,5,2,3
13241.5,6,6,2,3
13241.5,8,9,2,1
13241.5,9,9,1,-1
13241.5,4,5,-1,-4
13241.5,-1,0,-1,-7
13241.5,-12,-9,-4,-11
13241.5,-24,-17,-1,1
13241.5,-3,0,12,18
13241.5,18,19,19,22
13241.5,23,21,17,20
13241.5,24,17,7,7
13241.5,9,2,-5,-6
13241.5,-4,-8,-12,-12
13241.5,-11,-12,-11,-10
13241.5,-6,-5,-3,1
13241.5,6,5,4,7
13241.5,10,9,6,5
13241.5,7,6,1,-2
13241.5,-2,0,0,-5
13241.5,-4,1,0,-4
13241.5,-1,3,0,-5
13241.5,-1,6,7,1
13241.5,3,11,14,8
13241.5,6,9,11,7
13241.5,2,3,7,7
13241.5,5,3,9,16
13241.5,16,10,10,15
13241.5,13,6,5,6
13241.5,2,-1,0,0
13241.5,-5,-4,0,2
13241.5,-2,-2,0,2
13241.5,4,4,2,6
13241.5,11,6,0,1
13241.5,8,3,-5,-6
13241.5,-1,-1,-5,-4
13241.5,-1,-3,-8,-7
13241.5,-3,-3,-5,-4
13241.5,0,3,1,0
13241.5,3,6,7,4
13241.5,3,3,5,0
13241.5,-5,-6,-2,-4
13241.5,-10,-7,5,14
13241.5,14,14,18,27
13241.5,34,27,16,17
13241.5,23,16,2,2
13241.5,10,4,-11,-12
13241.5,-3,-6,-17,-18
13241.5,-11,-9,-12,-6
13241.5,4,5,0,1
13241.5,8,7,-1,-8
13241.5,-7,-6,-7,-13
13241.5,-15,-6,2,1
13241.5,-1,7,15,13
13241.5,7,13,20,16
13241.5,12,14,14,9
13241.5,6,7,8,7
13241.5,8,9,6,3
13241.5,4,5,1,-3
13241.5,-2,0,0,0
13241.5,2,4,2,4
13241.5,8,8,4,2
13241.5,4,5,4,0
13241.5,-5,-7,-3,-5
13241.5,-16,-17,-7,-6
13241.5,-18,-17,-1,5
13241.5,-3,-1,12,16
13241.5,11,12,21,25
13241.5,24,23,21,23
13241.5,28,23,8,8
13241.5,22,17,-3,-3
13241.5,13,11,-8,-13
13241.5,-2,-1,-12,-19
13241.5,-21,-19,-16,-17
13241.5,-18,-16,-10,-10
13241.5,-12,-7,0,3
13241.5,2,4,12,14
13241.5,8,6,11,4
13241.5,-12,-11,3,0
13241.5,-16,-12,8,12
13241.5,2,4,17,22
13241.5,20,21,23,28
13241.5,31,24,12,14
13241.5,26,20,4,3
13241.5,17,13,-6,-8
13241.5,4,1,-13,-12
13241.5,0,0,-9,-10
13241.5,-1,-1,-8,-14
13241.5,-12,-7,-7,-14
13241.5,-18,-10,-3,-7
13241.5,-15,-10,0,0
13241.5,-6,-4,5,8
13241.5,7,6,8,17
13241.5,24,21,14,22
13241.5,35,27,13,14
13241.5,22,15,1,3
13241.5,12,8,-2,-3
13241.5,4,4,-4,-10
13241.5,-9,-6,-4,-7
13241.5,-13,-11,-2,-5
13241.5,-17,-17,-6,-4
13241.5,-12,-12,-3,1
13241.5,5,8,7,7
13241.5,10,16,15,10
13241.5,9,15,17,10
13241.5,5,9,10,6
13241.5,3,7,6,4
13241.5,4,8,9,8
13241.5,9,9,7,6
13241.5,8,7,2,2
13241.5,6,2,-4,-3
13241.5,2,0,-9,-6
13241.5,2,0,-7,-5
13241.5,1,0,-6,-8
13241.5,-7,-5,-2,-2
13241.5,-2,0,4,2
13241.5,-3,-1,3,2
13241.5,-3,-2,4,6
13241.5,2,3,9,11
13241.5,9,9,10,11
13241.5,10,9,8,6
13241.5,4,5,5,3
13241.5,3,2,2,2
13241.5,2,2,1,3
13241.5,5,4,2,5
13241.5,8,6,1,5
13241.5,9,6,0,0
13241.5,5,2,-2,-3
13241.5,0,0,-2,-2
13241.5,0,1,1,0
13241.5,2,3,3,3
13241.5,4,4,2,1
13241.5,2,1,0,1
13241.6,0,1,2,1
13241.6,0,0,4,2
13241.6,-2,-1,4,2
13241.6,-7,-5,4,5
13241.6,-1,-2,3,8
13241.6,8,7,9,17
13241.6,21,16,9,17
13241.6,29,20,2,5
13241.6,22,16,-6,-10
13241.6,6,4,-12,-15
13241.6,-2,-1,-13,-16
13241.6,-8,-2,-6,-9
13241.6,-7,-2,0,-7
13241.6,-14,-7,5,3
13241.6,-4,0,10,9
13241.6,0,-1,5,4
13241.6,-2,-1,3,3
13241.6,-1,2,9,11
13241.6,12,13,13,13
13241.6,17,15,7,6
13241.6,12,11,3,0
13241.6,5,6,2,2
13241.6,4,4,3,2
13241.6,3,3,1,0
13241.6,1,2,1,0
13241.6,1,2,2,2
13241.6,3,2,3,4
13241.6,4,4,3,2
13241.6,3,2,0,-1
13241.6,0,0,-2,-2
13241.6,-1,-1,-2,0
13241.6,2,1,-1,0
13241.6,3,2,0,-2
13241.6,-1,1,2,2
13241.6,3,5,4,3
13241.6,3,5,4,0
13241.6,0,5,5,1
13241.6,0,6,8,3
13241.6,0,4,7,5
13241.6,1,2,4,3
13241.6,1,1,3,4
13241.6,4,4,4,4
13241.6,4,5,6,7
13241.6,6,6,9,12
13241.6,11,6,5,9
13241.6,7,0,0,2
13241.6,2,-1,-2,0
13241.6,1,-1,-3,-1
13241.6,0,-2,-3,-1
13241.6,0,0,0,2
13241.6,6,6,2,9
13241.6,20,15,3,7
13241.6,20,14,-3,-1
13241.6,11,5,-9,-11
13241.6,-10,-13,-16,-16
13241.6,-21,-23,-16,-19
13241.6,-30,-24,-2,2
13241.6,-4,1,18,24
13241.6,23,23,24,22
13241.6,20,18,15,10
13241.6,4,5,9,7
13241.6,1,1,5,7
13241.6,6,2,-1,0
13241.6,2,0,-2,-1
13241.6,5,11,8,9
13241.6,22,29,19,14
13241.6,27,31,14,0
13241.6,3,7,-2,-16
13241.6,-17,-12,-12,-16
13241.6,-16,-12,-8,-5
13241.6,0,0,-3,-2
13241.6,1,0,-4,-4
13241.6,-2,-3,-5,-1
13241.6,4,2,0,2
13241.6,6,5,2,1
13241.6,-1,-1,-1,-5
13241.6,-13,-11,0,0
13241.6,-6,-2,10,13
13241.6,9,11,17,19
13241.6,16,16,16,12
13241.6,7,9,12,9
13241.6,2,4,10,11
13241.6,9,6,5,5
13241.6,6,6,1,1
13241.6,3,5,3,3
13241.6,6,4,1,1
13241.6,3,1,-1,-2
13241.6,-2,-3,-5,-5
13241.6,-3,-3,-4,-3
13241.6,0,1,1,2
13241.6,5,5,2,2
13241.6,5,4,1,0
13241.6,1,1,-1,-3
13241.6,-1,1,0,-4
13241.6,0,4,5,5
13241.6,7,9,9,13
13241.6,13,7,3,4
13241.6,5,1,0,1
13241.6,1,0,-1,0
13241.6,2,0,-1,0
13241.6,1,0,0,1
13241.6,2,0,0,2
13241.6,4,2,1,4
13241.6,6,3,1,4
13241.6,5,4,2,2
13241.6,3,3,2,1
13241.6,3,4,3,1
13241.6,3,4,4,3
13241.6,4,5,5,3
13241.6,3,4,3,1
13241.6,2,3,2,0
13241.6,1,2,2,1
13241.6,2,5,5,2
13241.6,3,5,3,2
13241.6,3,4,1,1
13241.6,2,2,1,0
13241.6,1,2,1,1
13241.6,2,1,1,2
13241.6,3,1,1,4
13241.6,5,3,2,3
13241.6,5,4,1,0
13241.6,2,3,2,1
13241.6,2,3,2,1
13241.6,2,3,2,2
13241.6,3,2,0,2
13241.6,3,2,0,2
13241.6,4,4,4,4
13241.6,5,6,4,3
13241.6,4,3,2,1
13241.6,2,1,0,1
13241.6,1,1,0,0
13241.6,1,2,2,1
13241.6,3,4,4,3
13241.6,3,3,2,1
13241.6,2,1,1,0
13241.6,0,0,2,1
13241.6,1,3,4,3
13241.6,3,4,6,4
13241.6,3,4,4,4
13241.6,3,3,2,2
13241.6,3,3,2,3
13241.6,5,3,2,3
13241.6,6,4,2,3
13241.6,5,4,0,0
13241.6,2,2,0,0
13241.6,2,2,0,0
13241.6,1,2,0,0
13241.6,1,2,1,0
13241.6,0,2,2,-1
13241.6,0,3,4,0
13241.6,2,7,6,1
13241.6,3,9,8,3
13241.6,4,8,7,2
13241.6,3,7,7,2
13241.6,2,3,2,-1
13241.6,-1,0,2,1
13241.6,1,1,4,8
13241.6,8,3,5,11
13241.6,10,1,2,12
13241.6,12,0,-4,2
13241.6,4,-3,-7,-4
13241.6,-1,-2,-5,-5
13241.6,-2,-2,-3,-3
13241.6,0,1,0,0
13241.6,1,2,2,2
13241.6,2,4,3,3
13241.6,4,4,4,3
13241.6,3,3,1,2
13241.6,2,2,2,3
13241.6,4,3,2,4
13241.6,5,4,3,5
13241.6,7,5,4,5
13241.6,6,6,5,3
13241.7,4,5,6,4
13241.7,5,9,9,5
13241.7,6,10,9,4
13241.7,3,5,4,0
13241.7,0,2,0,0
13241.7,-1,0,-1,-2
13241.7,-1,-2,-2,-3
13241.7,-3,-3,-3,-2
13241.7,0,0,-1,-1
13241.7,0,2,3,2
13241.7,3,4,4,3
13241.7,5,5,4,3
13241.7,4,6,5,4
13241.7,5,5,5,4
13241.7,5,5,2,1
13241.7,2,3,2,2
13241.7,3,4,4,2
13241.7,3,4,3,2
13241.7,3,2,1,2
13241.7,3,2,1,2
13241.7,4,2,1,1
13241.7,3,2,1,2
13241.7,4,4,1,0
13241.7,2,3,0,-3
13241.7,0,3,1,-3
13241.7,0,4,6,7
13241.7,7,6,5,7
13241.7,7,5,2,3
13241.7,4,2,1,1
13241.7,2,1,1,0
13241.7,2,1,0,0
13241.7,2,2,1,1
13241.7,2,2,3,3
13241.7,3,3,3,3
13241.7,3,4,2,2
13241.7,2,2,1,1
13241.7,2,3,2,2
13241.7,2,1,1,2
13241.7,3,3,2,2
13241.7,3,2,3,3
13241.7,4,3,3,4
13241.7,4,5,5,4
13241.7,5,4,3,4
13241.7,3,2,2,3
13241.7,4,4,2,3
13241.7,4,2,1,2
13241.7,3,2,0,1
13241.7,2,1,1,2
13241.7,3,3,2,3
13241.7,5,3,1,2
13241.7,3,1,0,-2
13241.7,-1,2,0,-4
13241.7,0,5,4,-2
13241.7,0,7,5,-1
13241.7,0,7,5,-2
13241.7,0,8,7,0
13241.7,1,8,7,2
13241.7,2,8,10,9
13241.7,8,7,8,13
13241.7,10,2,3,11
13241.7,7,-4,-6,1
13241.7,0,-8,-8,-2
13241.7,-2,-5,-5,-2
13241.7,-1,-1,-1,-1
13241.7,1,3,2,2
13241.7,4,5,3,5
13241.7,6,6,5,7
13241.7,9,6,3,5
13241.7,6,1,0,2
13241.7,3,0,0,5
13241.7,5,0,0,2
13241.7,3,0,0,3
13241.7,4,3,2,2
13241.7,4,5,4,2
13241.7,3,6,4,3
13241.7,5,7,5,2
13241.7,2,5,4,2
13241.7,2,3,2,0
13241.7,0,0,-2,-3
13241.7,-3,-2,-2,-2
13241.7,0,1,1,1
13241.7,5,8,9,8
13241.7,8,8,7,5
13241.7,3,0,0,1
13241.7,2,0,0,3
13241.7,4,3,3,5
13241.7,5,1,0,2
13241.7,4,3,0,0
13241.7,0,2,2,0
13241.7,2,6,6,2
13241.7,5,8,3,-6
13241.7,-2,8,5,-2
13241.7,0,7,11,11
13241.7,12,8,8,12
13241.7,13,8,2,1
13241.7,3,7,1,-7
13241.7,-6,0,-3,-11
13241.7,-10,-4,-4,-9
13241.7,-7,0,0,-3
13241.7,-2,2,3,1
13241.7,1,5,5,4
13241.7,3,5,6,9
13241.7,6,1,3,12
13241.7,10,0,2,16
13241.7,14,-2,-4,8
13241.7,12,5,1,3
13241.7,9,17,13,3
13241.7,0,3,1,-2
13241.7,-5,-6,-7,-4
13241.7,-5,-8,-6,0
13241.7,1,-2,0,5
13241.7,5,0,0,6
13241.7,9,7,6,8
13241.7,11,14,13,8
13241.7,10,15,13,4
13241.7,3,8,5,-5
13241.7,-4,2,0,-6
13241.7,-5,1,2,1
13241.7,1,2,0,0
13241.7,1,1,0,0
13241.7,1,1,0,1
13241.7,1,0,0,0
13241.7,1,0,0,1
13241.7,3,1,1,3
13241.7,3,0,0,3
13241.7,4,-1,-1,2
13241.7,5,0,-1,4
13241.7,6,2,2,6
13241.7,12,16,13,9
13241.7,15,26,21,5
13241.7,6,21,16,-3
13241.7,-5,6,4,-8
13241.7,-10,-1,0,-7
13241.7,-10,-8,-8,-11
13241.7,-8,-2,-1,-5
13241.7,-5,0,3,1
13241.7,0,0,1,3
13241.7,0,-6,-4,3
13241.7,-3,-24,-21,0
13241.7,0,-26,-22,8
13241.7,11,-11,-9,19
13241.7,28,14,14,31
13241.7,36,28,24,28
13241.7,34,37,29,16
13241.7,15,20,13,2
13241.7,0,1,-2,-6
13241.7,-4,-1,-4,-7
13241.7,-7,-8,-10,-9
13241.7,-5,-3,-7,-8
13241.7,-5,-4,-7,-7
13241.7,-4,-6,-6,-2
13241.7,1,3,4,9
13241.7,7,-1,0,9
13241.7,8,-4,-5,5
13241.7,10,5,4,8
13241.7,12,14,11,7
13241.7,10,21,18,5
13241.7,10,33,28,0
13241.7,-2,17,14,-6
13241.7,-10,3,3,-10
13241.7,-15,-12,-12,-13
13241.7,-19,-29,-26,-13
13241.7,-9,-15,-13,0
13241.7,7,6,7,11
13241.7,10,5,6,14
13241.7,16,11,10,14
13241.7,21,27,20,9
13241.7,11,22,16,0
13241.7,-3,6,5,-5
13241.7,-10,-9,-8,-4
13241.7,-8,-18,-15,-1
13241.7,0,-8,-7,2
13241.7,7,7,5,5
13241.7,9,15,14,7
13241.8,5,7,8,8
13241.8,9,12,10,5
13241.8,5,8,4,-3
13241.8,-1,10,7,-5
13241.8,-4,8,9,-2
13241.8,-3,4,6,1
13241.8,0,3,2,0
13241.8,-1,-1,-4,-8
13241.8,-6,-2,-3,-9
13241.8,-7,-1,-1,-3
13241.8,-4,-6,-3,5
13241.8,5,-4,-4,9
13241.8,10,-3,-5,7
13241.8,13,8,5,11
13241.8,18,21,17,15
13241.8,21,30,28,21
13241.8,15,7,5,9
13241.8,-5,-34,-34,-7
13241.8,-9,-36,-33,-2
13241.8,16,19,16,13
13241.8,18,28,23,10
13241.8,3,0,3,10
13241.8,8,-2,-4,2
13241.8,2,-6,-10,-9
13241.8,-8,-10,-12,-11
13241.8,-8,-6,-3,0
13241.8,3,7,10,12
13241.8,13,12,10,7
13241.8,8,9,5,-3
13241.8,-2,6,5,-3
13241.8,-2,6,8,5
13241.8,6,14,15,11
13241.8,12,17,15,8
13241.8,5,4,0,-5
13241.8,-7,-8,-12,-15
13241.8,-11,-4,-4,-5
13241.8,2,13,11,2
13241.8,6,15,12,3
13241.8,1,5,3,-2
13241.8,-3,-2,-2,-4
13241.8,-6,-4,-2,-1
13241.8,0,0,2,7
13241.8,8,5,6,9
13241.8,9,6,4,5
13241.8,4,2,0,0
13241.8,-1,0,-1,-2
13241.8,1,7,10,10
13241.8,13,15,13,13
13241.8,14,15,10,3
13241.8,3,5,1,-5
13241.8,-5,-1,-5,-12
13241.8,-11,-8,-8,-11
13241.8,-11,-12,-13,-12
13241.8,-10,-8,-8,-7
13241.8,0,7,13,17
13241.8,16,11,12,21
13241.8,15,0,0,14
13241.8,14,-1,0,14
13241.8,18,9,7,14
13241.8,17,11,8,10
13241.8,12,12,9,9
13241.8,8,6,2,1
13241.8,0,-6,-7,-5
13241.8,-3,-9,-9,-5
13241.8,-2,-1,-3,-4
13241.8,-3,-2,-2,-3
13241.8,0,4,2,-2
13241.8,3,13,10,0
13241.8,0,7,4,-2
13241.8,-1,4,5,2
13241.8,3,4,4,3
13241.8,3,2,0,2
13241.8,2,2,2,3
13241.8,6,7,7,6
13241.8,5,6,5,3
13241.8,2,1,4,9
13241.8,7,-2,-4,1
13241.8,3,1,0,0
13241.8,3,6,5,4
13241.8,4,8,6,0
13241.8,0,2,1,-3
13241.8,-3,0,0,-2
13241.8,0,2,3,4
13241.8,7,8,7,7
13241.8,7,4,2,1
13241.8,1,-2,-4,-3
13241.8,-2,-2,-1,0
13241.8,3,5,7,8
13241.8,10,12,11,9
13241.8,9,7,3,3
13241.8,2,0,-3,-3
13241.8,-2,-3,-4,-3
13241.8,0,0,0,2
13241.8,4,5,4,5
13241.8,5,6,4,2
13241.8,2,2,0,-1
13241.8,0,2,1,0
13241.8,1,4,4,2
13241.8,4,8,6,3
13241.8,4,6,4,-1
13241.8,-1,2,0,-5
13241.8,-4,2,2,-2
13241.8,-1,4,6,2
13241.8,3,9,10,5
13241.8,5,10,11,6
13241.8,3,5,4,4
13241.8,3,1,2,7
13241.8,7,0,2,14
13241.8,13,-1,-4,6
13241.8,7,-4,-6,2
13241.8,5,-3,-6,0
13241.8,2,0,-2,-2
13241.8,1,6,4,-1
13241.8,1,7,7,0
13241.8,1,9,9,1
13241.8,5,19,17,2
13241.8,3,18,16,-1
13241.8,-7,0,-1,-9
13241.8,-9,-2,-1,-3
13241.8,0,8,9,6
13241.8,6,10,7,1
13241.8,-8,-17,-16,-6
13241.8,-11,-31,-26,-1
13241.8,9,2,1,9
13241.8,15,16,12,10
13241.8,6,0,0,8
13241.8,3,-15,-12,10
13241.8,6,-24,-21,13
13241.8,16,-11,-12,16
13241.8,29,20,14,21
13241.8,34,45,39,23
13241.8,26,42,35,13
13241.8,7,14,9,-6
13241.8,-11,-7,-11,-21
13241.8,-23,-18,-17,-22
13241.8,-20,-12,-10,-12
13241.8,-8,0,2,0
13241.8,2,6,6,4
13241.8,2,2,0,-2
13241.8,-3,-1,-3,-3
13241.8,-2,-2,0,3
13241.8,6,6,6,10
13241.8,12,11,10,11
13241.8,13,14,10,4
13241.8,7,14,11,0
13241.8,0,9,9,0
13241.8,0,8,9,2
13241.8,0,1,0,-2
13241.8,-5,-9,-9,-7
13241.8,-9,-14,-14,-5
13241.8,-3,-8,-6,4
13241.8,8,5,7,13
13241.8,15,12,10,13
13241.8,10,2,0,4
13241.8,5,-1,-2,2
13241.8,5,3,1,5
13241.8,10,9,8,8
13241.8,10,12,9,5
13241.8,5,5,3,0
13241.8,0,0,-3,-2
13241.8,-1,-2,-2,0
13241.8,1,0,0,3
13241.8,4,4,3,3
13241.8,1,0,0,0
13241.8,0,1,0,-1
13241.8,1,8,7,0
13241.8,6,23,20,1
13241.8,0,12,15,7
13241.8,3,3,1,0
13241.8,-1,-2,-4,-4
13241.8,-4,-4,-7,-6
13241.8,-4,-3,-4,-3
13241.8,-1,0,0,2
13241.8,5,5,5,7
13241.8,9,8,7,6
13241.9,6,3,0,1
13241.9,1,1,0,0
13241.9,2,2,2,2
13241.9,4,5,4,3
13241.9,4,5,3,1
13241.9,2,4,2,-2
13241.9,-1,2,3,4
13241.9,3,3,4,5
13241.9,5,5,6,7
13241.9,7,5,5,6
13241.9,5,3,2,2
13241.9,3,3,2,1
13241.9,2,4,3,1
13241.9,3,5,5,2
13241.9,4,6,6,3
13241.9,2,2,1,0
13241.9,0,-2,-4,-4
13241.9,-3,-4,-5,-2
13241.9,0,0,0,4
13241.9,8,8,7,11
13241.9,12,10,8,9
13241.9,8,5,2,0
13241.9,1,0,-2,-2
13241.9,0,0,0,2
13241.9,3,3,3,5
13241.9,5,2,0,0
13241.9,1,-1,-3,-2
13241.9,-1,-2,-1,0
13241.9,2,3,3,5
13241.9,8,7,7,5
13241.9,7,8,6,3
13241.9,3,6,4,0
13241.9,0,2,2,0
13241.9,0,1,2,2
13241.9,2,3,3,3
13241.9,3,4,2,2
13241.9,2,2,1,0
13241.9,0,2,2,1
13241.9,2,3,3,3
13241.9,4,5,4,4
13241.9,4,3,2,1
13241.9,2,1,0,1
13241.9,2,1,1,2
13241.9,3,3,3,3
13241.9,5,5,4,4
13241.9,3,4,4,3
13241.9,3,2,0,0
13241.9,1,0,0,1
13241.9,2,2,1,2
13241.9,3,3,2,3
13241.9,4,5,2,2
13241.9,4,5,4,2
13241.9,5,6,5,3
13241.9,5,7,5,1
13241.9,3,4,2,0
13241.9,0,2,1,0
13241.9,0,3,5,6
13241.9,6,2,0,2
13241.9,1,-2,-3,-1
13241.9,-1,-6,-6,-1
13241.9,0,-4,-3,3
13241.9,5,2,1,6
13241.9,7,4,2,4
13241.9,5,4,3,4
13241.9,7,6,5,5
13241.9,4,3,1,2
13241.9,2,1,1,2
13241.9,7,13,10,2
13241.9,1,3,2,-1
13241.9,-1,0,-1,0
13241.9,1,4,3,2
13241.9,5,10,8,2
13241.9,5,15,13,2
13241.9,3,15,14,1
13241.9,-1,5,6,2
13241.9,0,-1,0,5
13241.9,3,-5,-5,0
13241.9,0,-7,-8,-1
13241.9,1,0,-1,0
13241.9,3,3,1,0
13241.9,0,-1,-2,0
13241.9,0,-3,-5,0
13241.9,2,0,0,3
13241.9,8,10,9,8
13241.9,10,14,12,8
13241.9,8,10,8,3
13241.9,3,3,1,0
13241.9,0,-1,-3,-2
13241.9,-2,-4,-2,0
13241.9,0,-9,-7,3
13241.9,5,-2,0,10
13241.9,15,11,9,11
13241.9,13,13,10,6
13241.9,6,6,4,2
13241.9,4,7,4,0
13241.9,2,9,7,0
13241.9,5,19,14,-2
13241.9,-1,14,10,-8
13241.9,-11,0,0,-10
13241.9,-10,-3,-2,-6
13241.9,-7,-5,-4,-3
13241.9,-6,-13,-11,-2
13241.9,-2,-14,-11,4
13241.9,5,-3,0,13
13241.9,12,1,3,16
13241.9,18,11,11,16
13241.9,19,20,18,12
13241.9,9,7,5,4
13241.9,3,0,-3,0
13241.9,0,-2,-4,0
13241.9,2,-1,-3,1
13241.9,3,1,0,4
13241.9,6,6,4,6
13241.9,7,5,4,6
13241.9,6,4,3,5
13241.9,6,5,3,1
13241.9,2,4,2,0
13241.9,-3,-4,-3,0
13241.9,0,-4,-3,3
13241.9,6,5,4,5
13241.9,11,17,13,3
13241.9,2,4,2,-1
13241.9,-2,0,0,0
13241.9,4,10,8,2
13241.9,4,12,8,0
13241.9,3,14,10,-5
13241.9,-4,10,6,-8
13241.9,-9,1,2,-6
13241.9,-6,0,0,-4
13241.9,-7,-8,-7,-5
13241.9,-8,-14,-13,-4
13241.9,-2,-5,-3,4
13241.9,11,14,14,14
13241.9,17,21,18,12
13241.9,10,9,6,2
13241.9,2,4,3,-1
13241.9,0,5,5,0
13241.9,1,8,8,2
13241.9,-8,-19,-14,1
13241.9,-3,-24,-21,1
13241.9,7,-3,-3,8
13241.9,16,15,12,11
13241.9,12,13,12,11
13241.9,10,7,9,13
13241.9,13,6,4,8
13241.9,8,3,0,0
13241.9,0,-2,-4,-2
13241.9,0,1,1,2
13241.9,5,8,8,6
13241.9,7,8,6,3
13241.9,1,1,0,-3
13241.9,-3,-2,-3,-3
13241.9,-2,0,0,1
13241.9,2,2,1,4
13241.9,6,4,2,3
13241.9,4,3,1,0
13241.9,2,3,1,0
13241.9,3,7,5,2
13241.9,4,7,5,3
13241.9,3,6,3,1
13241.9,2,2,0,-2
13241.9,0,0,-1,-3
13241.9,-1,0,-1,-1
13241.9,1,2,1,2
13241.9,5,8,6,6
13241.9,6,8,6,4
13241.9,4,4,3,1
13241.9,2,4,3,1
13241.9,2,4,3,2
13241.9,2,3,2,1
13241.9,1,1,1,2
13241.9,2,0,0,3
13241.9,3,0,1,4
13241.9,5,2,0,1
13242,2,1,1,1
13242,2,4,3,2
13242,3,4,3,1
13242,2,3,3,0
13242,1,3,2,2
13242,2,4,4,3
13242,4,6,4,3
13242,3,4,3,3
13242,4,3,3,2
13242,3,5,3,1
13242,3,6,5,4
13242,4,6,5,2
13242,3,6,8,8
13242,8,3,1,3
13242,2,-2,-4,-1
13242,0,-3,-4,-1
13242,1,0,-1,0
13242,2,3,2,1
13242,3,5,4,2
13242,4,7,6,2
13242,3,5,3,1
13242,1,1,1,0
13242,1,1,0,0
13242,1,1,0,0
13242,1,1,0,0
13242,2,1,2,3
13242,4,4,3,4
13242,6,6,4,4
13242,7,9,7,2
13242,3,6,5,0
13242,0,3,2,0
13242,1,3,3,1
13242,1,2,1,0
13242,1,0,0,0
13242,-1,-4,-2,1
13242,1,-1,0,5
13242,6,5,4,7
13242,8,7,6,6
13242,6,5,4,2
13242,3,3,2,0
13242,0,3,2,-1
13242,0,3,3,0
13242,1,4,3,0
13242,1,2,1,0
13242,1,4,5,3
13242,5,8,8,6
13242,7,8,8,8
13242,9,6,6,11
13242,11,4,1,5
13242,5,0,-2,0
13242,0,-1,-2,-2
13242,-1,0,-1,-2
13242,-3,-3,-4,-2
13242,-2,-5,-4,-1
13242,0,-2,-3,3
13242,4,0,-1,5
13242,6,-2,-3,4
13242,8,3,0,5
13242,10,10,6,6
13242,10,12,9,4
13242,7,13,10,4
13242,7,16,13,2
13242,1,8,6,-1
13242,-3,0,-1,-3
13242,-4,-2,-2,-2
13242,-2,-1,0,0
13242,0,0,1,1
13242,2,4,3,2
13242,4,7,5,3
13242,4,6,5,2
13242,2,5,3,1
13242,0,2,2,0
13242,0,0,0,1
13242,1,1,0,2
13242,3,1,1,3
13242,4,2,1,3
13242,3,1,0,4
13242,6,4,3,5
13242,6,7,6,6
13242,7,8,6,4
13242,4,3,2,1
13242,2,1,0,1
13242,2,0,0,0
13242,2,3,3,3
13242,5,8,10,10
13242,10,5,2,2
13242,2,0,-1,-1
13242,0,0,0,0
13242,2,5,4,1
13242,3,7,5,0
13242,0,0,0,0
13242,0,1,1,2
13242,4,5,3,2
13242,4,7,5,0
13242,2,6,4,0
13242,0,2,2,0
13242,0,0,1,0
13242,0,0,0,0
13242,0,0,-2,0
13242,0,0,0,1
13242,3,3,3,3
13242,5,5,5,5
13242,7,7,6,4
13242,5,6,5,2
13242,2,3,2,0
13242,1,0,1,4
13242,3,0,0,4
13242,4,-3,-3,2
13242,2,-1,-1,3
13242,5,4,4,6
13242,8,8,8,8
13242,9,10,8,6
13242,6,7,6,4
13242,2,1,0,0
13242,0,-2,-3,-1
13242,-1,-2,-2,1
13242,2,0,0,5
13242,7,3,2,5
13242,6,4,2,3
13242,4,5,2,0
13242,6,15,10,1
13242,5,15,11,0
13242,-2,1,0,-4
13242,-4,-3,-3,-3
13242,-3,-4,-5,-2
13242,0,0,0,1
13242,3,2,2,4
13242,5,2,3,6
13242,9,5,2,5
13242,10,14,10,5
13242,5,10,7,1
13242,0,3,1,0
13242,0,0,0,0
13242,0,1,0,0
13242,0,-1,-1,0
13242,0,0,1,1
13242,6,12,11,5
13242,6,14,12,3
13242,1,5,4,-1
13242,-2,0,-1,-3
13242,-4,-5,-6,-3
13242,-3,-9,-8,0
13242,-2,-14,-11,5
13242,8,-2,-1,13
13242,17,10,9,16
13242,15,6,5,11
13242,12,7,6,10
13242,12,12,9,8
13242,13,21,16,3
13242,5,19,16,0
13242,-2,4,3,-8
13242,-10,-5,-6,-11
13242,-9,-3,-3,-6
13242,-5,-1,-1,-3
13242,-3,-1,-1,-2
13242,-1,0,0,0
13242,1,-1,0,4
13242,5,1,1,6
13242,9,7,4,6
13242,8,5,2,3
13242,6,5,4,5
13242,6,4,3,5
13242,6,3,2,5
13242,5,1,0,2
13242,3,2,1,1
13242,3,4,3,2
13242,4,4,3,2
13242,3,3,3,1
13242,1,3,2,0
13242,1,6,5,2
13242,2,6,6,3
13242,2,2,3,2
13242,1,0,0,0
13242,0,-3,-3,-1
13242,0,0,-1,0
13242.1,2,1,2,3
13242.1,5,5,4,5
13242.1,7,7,6,3
13242.1,5,6,5,2
13242.1,2,4,4,1
13242.1,0,2,4,4
13242.1,4,6,5,4
13242.1,3,5,2,0
13242.1,0,2,0,-2
13242.1,-2,-1,0,0
13242.1,1,-3,-4,1
13242.1,5,0,-2,1
13242.1,7,7,5,4
13242.1,7,10,10,9
13242.1,12,13,11,11
13242.1,13,14,11,5
13242.1,4,3,0,-2
13242.1,-4,-8,-9,-7
13242.1,-6,-8,-9,-5
13242.1,-2,-4,-5,-2
13242.1,0,-1,-2,2
13242.1,5,6,5,6
13242.1,9,7,6,6
13242.1,7,7,4,4
13242.1,6,7,5,2
13242.1,6,12,11,3
13242.1,1,7,6,1
13242.1,0,1,1,0
13242.1,0,2,1,0
13242.1,0,2,2,0
13242.1,-1,-2,-2,-2
13242.1,-1,-3,-3,1
13242.1,2,0,0,4
13242.1,6,4,3,5
13242.1,6,5,4,3
13242.1,4,4,3,3
13242.1,3,2,3,5
13242.1,5,3,3,5
13242.1,6,4,3,5
13242.1,6,4,2,3
13242.1,4,2,2,3
13242.1,4,4,2,4
13242.1,5,5,4,3
13242.1,3,2,1,0
13242.1,0,-1,-2,0
13242.1,0,0,0,1
13242.1,4,4,4,4
13242.1,6,7,5,5
13242.1,6,8,6,1
13242.1,4,10,7,0
13242.1,1,9,8,0
13242.1,-1,5,4,-2
13242.1,-1,1,0,-2
13242.1,-1,-1,-2,-3
13242.1,-2,-4,-5,-2
13242.1,0,-3,-2,2
13242.1,4,-1,-2,3
13242.1,6,2,2,6
13242.1,9,6,6,10
13242.1,11,6,4,7
13242.1,8,7,4,4
13242.1,8,9,8,5
13242.1,5,8,7,1
13242.1,1,3,2,-1
13242.1,-1,0,0,-3
13242.1,-2,-1,-2,-3
13242.1,-2,0,0,0
13242.1,0,0,0,1
13242.1,1,1,0,3
13242.1,4,2,1,5
13242.1,7,5,4,6
13242.1,8,10,8,5
13242.1,5,7,7,3
13242.1,2,4,3,1
13242.1,1,2,2,1
13242.1,1,2,1,0
13242.1,0,0,0,0
13242.1,0,0,0,1
13242.1,3,2,2,4
13242.1,4,3,3,5
13242.1,5,4,4,3
13242.1,4,4,3,2
13242.1,3,4,3,2
13242.1,3,3,2,2
13242.1,7,12,9,1
13242.1,2,6,4,-1
13242.1,-2,0,-1,-3
13242.1,-2,0,-1,-1
13242.1,2,5,3,2
13242.1,4,6,4,1
13242.1,1,0,0,0
13242.1,1,0,-1,3
13242.1,3,-2,-2,4
13242.1,2,-5,-5,4
13242.1,5,-2,-2,6
13242.1,7,1,1,8
13242.1,10,7,5,9
13242.1,11,11,9,7
13242.1,11,20,15,4
13242.1,6,16,12,0
13242.1,-2,3,2,-4
13242.1,-6,-2,-3,-6
13242.1,-6,-6,-6,-5
13242.1,-4,-7,-7,-4
13242.1,-3,-5,-4,2
13242.1,4,0,1,7
13242.1,9,6,5,8
13242.1,9,7,6,6
13242.1,7,6,6,5
13242.1,6,7,6,6
13242.1,7,9,8,5
13242.1,5,6,5,2
13242.1,1,1,0,-2
13242.1,-1,0,0,-1
13242.1,-1,0,0,0
13242.1,1,0,0,1
13242.1,2,1,0,1
13242.1,3,1,0,3
13242.1,5,3,2,3
13242.1,6,5,5,5
13242.1,6,6,5,3
13242.1,5,6,3,2
13242.1,4,6,4,1
13242.1,2,3,2,0
13242.1,0,1,0,0
13242.1,2,3,1,0
13242.1,1,2,1,0
13242.1,2,2,1,1
13242.1,1,2,0,1
13242.1,1,2,1,0
13242.1,1,1,1,0
13242.1,2,2,3,3
13242.1,4,4,3,3
13242.1,3,3,3,2
13242.1,3,3,3,2
13242.1,4,6,5,2
13242.1,3,6,5,4
13242.1,4,5,4,1
13242.1,2,4,6,8
13242.1,7,4,3,5
13242.1,4,0,-1,0
13242.1,1,0,-1,0
13242.1,0,0,0,0
13242.1,1,2,1,1
13242.1,2,4,3,0
13242.1,1,2,3,2
13242.1,1,3,5,3
13242.1,3,5,6,3
13242.1,4,6,5,2
13242.1,1,3,2,1
13242.1,1,1,0,3
13242.1,4,5,4,4
13242.1,7,7,3,2
13242.1,2,3,0,-1
13242.1,0,-2,-4,-2
13242.1,-2,-10,-11,0
13242.1,3,-3,-3,5
13242.1,9,3,1,7
13242.1,10,5,3,7
13242.1,10,9,8,10
13242.1,10,7,4,5
13242.1,7,8,5,2
13242.1,5,8,6,0
13242.1,0,4,3,0
13242.1,0,1,1,0
13242.1,1,3,3,1
13242.1,2,4,4,0
13242.1,0,2,1,-1
13242.1,0,5,4,-1
13242.1,1,9,8,0
13242.1,-1,1,0,-3
13242.1,-4,-3,-4,-5
13242.1,-3,0,0,-3
13242.2,0,4,3,0
13242.2,2,7,7,4
13242.2,5,10,10,6
13242.2,5,7,7,4
13242.2,4,4,3,5
13242.2,3,0,3,12
13242.2,10,0,0,10
13242.2,11,0,0,6
13242.2,7,1,-1,1
13242.2,2,0,-2,-2
13242.2,-2,-2,-3,-2
13242.2,0,0,0,0
13242.2,2,1,2,4
13242.2,4,3,1,3
13242.2,5,3,2,2
13242.2,3,3,1,1
13242.2,4,3,2,3
13242.2,5,6,4,5
13242.2,6,7,5,5
13242.2,5,5,4,1
13242.2,2,3,1,0
13242.2,0,1,1,0
13242.2,0,0,0,1
13242.2,3,3,2,2
13242.2,6,8,6,4
13242.2,4,7,5,1
13242.2,2,4,3,0
13242.2,0,2,0,-1
13242.2,0,1,0,0
13242.2,0,0,0,0
13242.2,1,3,2,1
13242.2,3,7,6,4
13242.2,4,4,3,3
13242.2,3,1,0,2
13242.2,2,1,0,2
13242.2,3,3,1,1
13242.2,5,11,8,3
13242.2,0,2,2,2
13242.2,0,-1,-1,1
13242.2,2,0,0,0
13242.2,2,2,2,0
13242.2,2,5,4,1
13242.2,2,7,8,7
13242.2,6,4,5,8
13242.2,7,1,0,4
13242.2,5,0,-1,3
13242.2,3,-3,-4,1
13242.2,6,4,2,1
13242.2,6,12,9,3
13242.2,2,5,4,0
13242.2,0,1,0,-1
13242.2,0,0,0,-1
13242.2,1,2,1,0
13242.2,2,4,3,2
13242.2,4,5,4,3
13242.2,5,6,4,3
13242.2,4,5,3,0
13242.2,1,1,0,0
13242.2,0,1,1,0
13242.2,1,3,2,3
13242.2,3,2,1,2
13242.2,2,0,0,1
13242.2,2,0,0,2
13242.2,4,3,2,3
13242.2,6,8,7,5
13242.2,7,9,7,3
13242.2,4,8,6,0
13242.2,1,7,5,0
13242.2,-1,2,2,-2
13242.2,-3,-1,-1,-1
13242.2,-1,-3,-2,0
13242.2,0,-2,-1,2
13242.2,2,-3,-2,4
13242.2,5,1,1,7
13242.2,9,6,5,8
13242.2,10,9,7,7
13242.2,8,7,5,4
13242.2,5,6,4,1
13242.2,2,5,3,1
13242.2,1,3,3,0
13242.2,0,2,2,0
13242.2,0,1,1,0
13242.2,0,-1,0,0
13242.2,1,-1,-1,2
13242.2,2,0,0,4
13242.2,4,0,0,5
13242.2,6,0,-1,3
13242.2,6,4,2,5
13242.2,10,10,7,5
13242.2,9,17,14,7
13242.2,7,11,10,7
13242.2,6,4,0,-1
13242.2,-1,-1,-3,-4
13242.2,-3,-2,-4,-6
13242.2,-3,-2,-3,-4
13242.2,-2,0,-1,-2
13242.2,0,1,0,1
13242.2,3,6,6,4
13242.2,5,9,7,3
13242.2,4,7,5,1
13242.2,2,6,5,2
13242.2,2,3,2,2
13242.2,2,1,1,1
13242.2,1,0,0,0
13242.2,-2,-9,-6,2
13242.2,2,-5,-1,8
13242.2,12,9,9,12
13242.2,13,12,11,8
13242.2,7,7,6,4
13242.2,3,4,3,1
13242.2,2,3,2,1
13242.2,0,0,-1,0
13242.2,0,-1,-3,0
13242.2,0,-2,-3,0
13242.2,1,0,0,2
13242.2,5,5,4,4
13242.2,7,9,7,4
13242.2,5,7,6,4
13242.2,4,4,4,1
13242.2,1,3,2,1
13242.2,2,1,0,0
13242.2,1,1,0,0
13242.2,2,1,0,1
13242.2,3,2,1,2
13242.2,4,6,3,3
13242.2,5,5,3,1
13242.2,3,4,2,1
13242.2,4,7,5,1
13242.2,3,7,5,0
13242.2,0,3,1,0
13242.2,0,0,0,0
13242.2,0,0,0,0
13242.2,2,0,0,1
13242.2,2,1,2,2
13242.2,3,2,1,3
13242.2,3,1,2,3
13242.2,4,2,2,3
13242.2,3,2,2,2
13242.2,3,3,2,2
13242.2,3,4,4,4
13242.2,4,5,4,4
13242.2,5,5,4,4
13242.2,5,4,4,3
13242.2,4,5,4,4
13242.2,4,4,4,2
13242.2,4,6,4,2
13242.2,1,4,2,0
13242.2,0,2,1,0
13242.2,0,0,1,0
13242.2,0,0,1,1
13242.2,1,2,1,1
13242.2,2,2,1,1
13242.2,2,2,1,1
13242.2,2,2,2,3
13242.2,4,4,3,3
13242.2,4,3,2,2
13242.2,4,4,3,3
13242.2,5,5,5,4
13242.2,6,5,3,2
13242.2,4,3,2,2
13242.2,3,2,0,0
13242.2,1,0,-1,0
13242.2,0,0,0,2
13242.2,3,3,2,3
13242.2,4,3,2,3
13242.2,4,4,3,3
13242.2,4,2,1,2
13242.2,1,0,-1,1
13242.2,2,0,-1,3
13242.2,5,5,3,4
13242.2,7,9,7,3
13242.2,5,10,8,3
13242.2,4,8,6,0
13242.2,2,8,7,0
13242.2,-2,0,0,-3
13242.3,-1,0,1,0
13242.3,0,3,2,0
13242.3,-2,-3,-3,-1
13242.3,-1,-3,-3,0
13242.3,1,0,0,1
13242.3,4,4,4,4
13242.3,6,10,10,7
13242.3,9,11,10,6
13242.3,6,9,9,5
13242.3,4,4,2,2
13242.3,1,0,1,6
13242.3,5,0,2,9
13242.3,7,-1,-2,5
13242.3,6,-1,-2,3
13242.3,3,0,-2,0
13242.3,1,-1,-2,-1
13242.3,0,-1,-1,-1
13242.3,1,2,1,2
13242.3,4,5,5,5
13242.3,6,7,5,4
13242.3,4,5,3,1
13242.3,1,2,1,1
13242.3,2,3,2,1
13242.3,2,3,3,3
13242.3,4,5,2,1
13242.3,2,3,1,0
13242.3,1,2,0,0
13242.3,1,3,2,1
13242.3,3,5,4,3
13242.3,4,5,4,4
13242.3,4,3,2,0
13242.3,2,2,1,0
13242.3,1,1,1,0
13242.3,1,3,3,2
13242.3,3,5,5,4
13242.3,4,3,3,3
13242.3,3,0,0,0
13242.3,1,0,0,0
13242.3,2,1,1,3
13242.3,5,5,5,5
13242.3,8,10,8,5
13242.3,6,9,7,2
13242.3,2,5,4,1
13242.3,2,5,4,0
13242.3,0,2,2,0
13242.3,-2,-1,-2,-2
13242.3,-1,0,-1,-1
13242.3,0,1,0,1
13242.3,2,2,0,2
13242.3,3,3,3,3
13242.3,4,4,4,5
13242.3,6,6,6,6
13242.3,7,8,6,4
13242.3,4,1,0,0
13242.3,0,-2,-3,0
13242.3,2,-1,-2,2
13242.3,4,1,1,3
13242.3,6,4,3,5
13242.3,7,7,5,3
13242.3,5,7,4,2
13242.3,4,9,7,3
13242.3,2,5,5,0
13242.3,-2,1,1,-1
13242.3,-2,-2,-2,-2
13242.3,-1,-1,-1,0
13242.3,1,0,0,2
13242.3,3,3,1,3
13242.3,5,5,4,5
13242.3,6,5,5,5
13242.3,5,5,4,4
13242.3,4,4,3,2
13242.3,3,2,2,1
13242.3,2,2,2,2
13242.3,3,3,3,2
13242.3,3,2,2,2
13242.3,2,2,2,2
13242.3,2,2,3,2
13242.3,2,3,4,3
13242.3,3,3,3,3
13242.3,3,3,2,1
13242.3,3,4,2,2
13242.3,4,4,2,2
13242.3,4,4,3,2
13242.3,3,2,0,0
13242.3,1,2,0,0
13242.3,2,2,1,0
13242.3,3,3,2,1
13242.3,3,3,2,2
13242.3,3,4,3,2
13242.3,4,5,4,3
13242.3,5,6,4,2
13242.3,3,5,4,1
13242.3,2,3,2,0
13242.3,0,0,-1,0
13242.3,0,-1,-1,0
13242.3,0,0,0,2
13242.3,3,0,0,3
13242.3,5,4,4,5
13242.3,7,6,5,5
13242.3,4,4,2,2
13242.3,6,10,8,4
13242.3,3,7,7,2
13242.3,2,4,2,0
13242.3,0,1,0,0
13242.3,0,1,0,0
13242.3,-1,0,0,0
13242.3,0,0,0,0
13242.3,0,-1,-1,2
13242.3,2,0,0,4
13242.3,5,0,1,5
13242.3,6,3,2,6
13242.3,8,8,7,8
13242.3,10,13,11,6
13242.3,6,7,6,2
13242.3,2,2,2,1
13242.3,1,1,0,1
13242.3,0,0,0,0
13242.3,0,0,-1,-2
13242.3,0,2,2,2
13242.3,4,6,5,5
13242.3,5,4,2,1
13242.3,2,2,0,0
13242.3,0,0,-1,0
13242.3,1,-1,-1,4
13242.3,5,0,-1,4
13242.3,6,3,1,3
13242.3,5,6,3,1
13242.3,4,5,4,1
13242.3,2,6,5,2
13242.3,3,6,5,3
13242.3,3,4,3,2
13242.3,2,4,3,0
13242.3,2,5,3,0
13242.3,2,5,4,0
13242.3,0,1,0,0
13242.3,-1,-3,-3,0
13242.3,0,-4,-4,0
13242.3,3,1,1,4
13242.3,6,5,5,6
13242.3,7,6,6,6
13242.3,6,4,4,5
13242.3,5,4,3,2
13242.3,4,5,4,3
13242.3,3,4,3,2
13242.3,3,4,2,2
13242.3,3,3,2,1
13242.3,2,3,2,0
13242.3,1,3,3,0
13242.3,1,4,3,0
13242.3,0,3,2,0
13242.3,2,3,3,1
13242.3,1,3,3,1
13242.3,1,2,1,0
13242.3,0,0,0,-1
13242.3,0,0,-2,-1
13242.3,0,2,1,0
13242.3,2,4,4,2
13242.3,3,5,3,3
13242.3,5,6,6,5
13242.3,8,9,8,7
13242.3,9,8,7,7
13242.3,11,14,13,12
13242.3,10,4,2,5
13242.3,3,-3,-5,-1
13242.3,-1,-5,-7,-4
13242.3,-4,-8,-9,-5
13242.3,-2,-3,-3,-2
13242.3,0,1,0,0
13242.3,2,7,7,3
13242.3,4,9,8,5
13242.3,5,6,5,2
13242.3,1,2,1,0
13242.3,0,0,0,0
13242.3,0,-1,-1,2
13242.4,3,1,1,6
13242.4,7,5,5,7
13242.4,7,5,5,5
13242.4,6,5,3,3
13242.4,4,4,4,3
13242.4,5,5,5,4
13242.4,5,5,4,3
13242.4,2,2,1,0
13242.4,1,1,0,0
13242.4,1,2,1,0
13242.4,1,2,1,1
13242.4,3,4,3,4
13242.4,4,4,4,3
13242.4,4,3,1,1
13242.4,3,3,2,1
13242.4,2,2,1,0
13242.4,2,2,0,1
13242.4,2,2,1,0
13242.4,3,4,2,2
13242.4,4,4,3,3
13242.4,4,4,2,2
13242.4,3,3,2,2
13242.4,3,3,1,1
13242.4,2,2,1,1
13242.4,2,3,2,1
13242.4,3,4,3,2
13242.4,4,5,4,1
13242.4,2,6,5,1
13242.4,2,6,5,0
13242.4,0,5,4,0
13242.4,0,1,1,0
13242.4,0,0,0,0
13242.4,-1,-3,-3,0
13242.4,0,-7,-4,3
13242.4,4,-2,-1,7
13242.4,9,2,3,9
13242.4,10,6,5,8
13242.4,11,12,10,8
13242.4,9,12,10,5
13242.4,3,2,1,0
13242.4,0,-3,-3,-1
13242.4,-1,-3,-3,1
13242.4,2,1,2,4
13242.4,4,4,4,5
13242.4,6,6,6,4
13242.4,5,7,6,2
13242.4,2,5,5,0
13242.4,0,4,3,0
13242.4,4,11,9,0
13242.4,0,8,7,-1
13242.4,-1,3,1,-3
13242.4,-2,-1,-2,-3
13242.4,-1,-2,-4,-4
13242.4,-3,-2,-3,0
13242.4,2,1,0,2
13242.4,3,2,1,4
13242.4,6,2,2,5
13242.4,7,4,2,6
13242.4,8,7,4,5
13242.4,7,5,4,4
13242.4,6,6,4,4
13242.4,6,7,5,4
13242.4,4,5,3,0
13242.4,1,2,1,0
13242.4,0,2,1,0
13242.4,1,2,1,0
13242.4,1,0,0,1
13242.4,1,0,-1,0
13242.4,0,-3,-3,2
13242.4,3,1,1,5
13242.4,7,5,5,6
13242.4,7,7,6,6
13242.4,6,6,5,3
13242.4,4,5,4,1
13242.4,3,6,4,1
13242.4,1,3,3,1
13242.4,1,4,3,0
13242.4,1,5,5,0
13242.4,1,4,3,0
13242.4,0,3,1,0
13242.4,0,0,1,0
13242.4,0,-1,-1,1
13242.4,0,-4,-3,2
13242.4,2,-3,-3,4
13242.4,7,3,2,7
13242.4,9,7,6,7
13242.4,8,6,5,6
13242.4,6,5,4,4
13242.4,5,2,1,2
13242.4,3,2,0,1
13242.4,2,2,0,1
13242.4,4,5,3,3
13242.4,4,2,1,2
13242.4,4,4,3,2
13242.4,5,10,8,1
13242.4,3,11,8,0
13242.4,-1,4,3,-2
13242.4,-4,-3,-4,-3
13242.4,-3,-5,-6,-1
13242.4,-1,-6,-5,0
13242.4,1,-1,-1,3
13242.4,6,7,7,7
13242.4,9,10,9,8
13242.4,8,7,5,4
13242.4,6,7,6,2
13242.4,1,5,4,0
13242.4,0,2,2,0
13242.4,2,5,5,2
13242.4,2,4,3,1
13242.4,1,2,1,0
13242.4,0,0,0,0
13242.4,0,0,0,0
13242.4,1,-1,0,4
13242.4,5,2,1,6
13242.4,9,6,5,5
13242.4,7,5,4,5
13242.4,6,4,3,4
13242.4,6,6,5,5
13242.4,5,4,3,2
13242.4,4,2,0,-1
13242.4,2,7,4,-2
13242.4,1,12,9,-2
13242.4,-1,6,5,-3
13242.4,-4,0,0,-4
13242.4,-4,-4,-5,-4
13242.4,-3,-6,-6,-3
13242.4,0,-3,-2,3
13242.4,5,0,0,9
13242.4,10,1,0,11
13242.4,12,4,2,10
13242.4,13,9,7,10
13242.4,12,10,8,7
13242.4,7,7,6,5
13242.4,5,5,3,3
13242.4,2,3,0,-1
13242.4,-1,0,-1,-3
13242.4,-2,0,0,-2
13242.4,0,1,2,1
13242.4,2,4,4,2
13242.4,3,4,3,1
13242.4,1,1,0,0
13242.4,0,0,0,0
13242.4,0,3,2,1
13242.4,4,5,5,4
13242.4,6,7,5,4
13242.4,4,5,4,2
13242.4,2,2,2,2
13242.4,1,0,2,3
13242.4,4,3,2,3
13242.4,4,2,1,3
13242.4,3,1,0,2
13242.4,3,1,0,2
13242.4,4,3,2,3
13242.4,6,8,7,4
13242.4,8,13,11,3
13242.4,3,7,4,-1
13242.4,-2,0,-1,-2
13242.4,-2,0,-1,-1
13242.4,0,-2,-2,-1
13242.4,0,-1,-2,0
13242.4,4,3,1,4
13242.4,7,5,4,5
13242.4,7,6,4,4
13242.4,5,5,3,0
13242.4,1,3,0,-2
13242.4,0,4,3,0
13242.4,1,6,5,0
13242.4,0,4,3,1
13242.4,1,3,2,2
13242.4,3,6,5,4
13242.4,5,6,6,7
13242.4,7,5,5,9
13242.4,8,1,1,7
13242.5,7,2,0,4
13242.5,4,0,-2,-1
13242.5,0,0,-2,-2
13242.5,-2,-2,-1,-1
13242.5,-2,-7,-6,-1
13242.5,-1,-8,-6,2
13242.5,4,0,0,6
13242.5,10,11,10,11
13242.5,15,22,19,10
13242.5,7,9,8,3
13242.5,1,1,0,0
13242.5,0,-2,-3,-2
13242.5,-3,-6,-6,-1
13242.5,-1,-4,-3,2
13242.5,5,4,5,7
13242.5,9,10,9,8
13242.5,8,9,8,6
13242.5,6,6,3,2
13242.5,5,5,1,0
13242.5,4,6,2,0
13242.5,2,6,3,0
13242.5,0,2,0,-2
13242.5,-1,0,-1,-2
13242.5,0,0,0,0
13242.5,1,2,1,0
13242.5,3,3,2,2
13242.5,4,5,4,4
13242.5,5,6,4,3
13242.5,4,5,2,1
13242.5,2,3,2,0
13242.5,0,3,3,1
13242.5,2,3,2,2
13242.5,2,2,2,2
13242.5,1,2,1,1
13242.5,3,3,2,2
13242.5,3,5,5,3
13242.5,4,6,6,4
13242.5,4,5,5,2
13242.5,2,3,2,1
13242.5,0,1,0,0
13242.5,0,1,1,1
13242.5,1,1,1,2
13242.5,3,1,0,3
13242.5,3,0,1,3
13242.5,5,3,3,4
13242.5,6,4,3,3
13242.5,5,5,5,4
13242.5,5,4,4,2
13242.5,1,0,0,0
13242.5,1,0,-1,0
13242.5,1,-1,-2,1
13242.5,4,2,3,4
13242.5,7,10,10,8
13242.5,9,11,9,5
13242.5,4,6,4,0
13242.5,0,1,0,-3
13242.5,-1,0,0,-1
13242.5,-1,0,0,0
13242.5,0,0,-1,1
13242.5,2,1,1,3
13242.5,4,2,2,4
13242.5,6,3,2,4
13242.5,5,5,3,3
13242.5,3,2,0,2
13242.5,2,0,0,1
13242.5,1,0,0,2
13242.5,4,3,2,3
13242.5,8,12,9,4
13242.5,5,11,9,2
13242.5,1,4,4,0
13242.5,0,2,1,0
13242.5,0,0,0,-1
13242.5,-1,-1,-1,-1
13242.5,0,0,0,1
13242.5,2,4,4,5
13242.5,6,6,6,5
13242.5,5,4,3,2
13242.5,2,1,1,1
13242.5,1,1,1,2
13242.5,3,2,1,4
13242.5,4,2,2,4
13242.5,4,0,-1,2
13242.5,2,-2,-2,2
13242.5,4,1,1,6
13242.5,9,10,9,8
13242.5,11,16,13,6
13242.5,5,9,5,0
13242.5,-1,0,0,-2
13242.5,-1,1,0,-2
13242.5,-1,0,0,-1
13242.5,-1,0,0,-1
13242.5,0,0,0,0
13242.5,1,1,0,1
13242.5,3,1,1,3
13242.5,6,6,4,4
13242.5,7,8,5,3
13242.5,4,6,5,2
13242.5,3,3,3,2
13242.5,2,2,1,1
13242.5,1,0,-1,1
13242.5,1,0,-1,1
13242.5,2,-1,-1,2
13242.5,2,-1,-1,3
13242.5,4,2,1,5
13242.5,8,6,5,5
13242.5,6,6,5,3
13242.5,4,6,5,5
13242.5,6,7,7,5
13242.5,5,7,5,2
13242.5,3,3,2,0
13242.5,0,1,0,-1
13242.5,0,2,2,1
13242.5,1,1,1,1
13242.5,0,0,-1,1
13242.5,0,-2,-3,0
13242.5,0,-1,-2,1
13242.5,4,2,1,3
13242.5,6,5,4,4
13242.5,6,8,6,4
13242.5,5,8,7,3
13242.5,4,8,7,3
13242.5,3,6,5,2
13242.5,3,5,3,1
13242.5,1,1,0,0
13242.5,0,0,-1,0
13242.5,1,-1,-1,1
13242.5,3,1,0,1
13242.5,4,6,5,3
13242.5,5,5,5,3
13242.5,3,3,1,0
13242.5,1,0,0,0
13242.5,0,0,0,0
13242.5,3,3,2,3
13242.5,4,4,4,3
13242.5,4,4,3,1
13242.5,1,3,2,1
13242.5,2,3,3,2
13242.5,4,7,5,2
13242.5,4,7,5,2
13242.5,2,6,5,2
13242.5,2,4,3,1
13242.5,1,3,1,0
13242.5,0,0,0,-1
13242.5,0,0,0,0
13242.5,0,0,1,1
13242.5,1,0,0,2
13242.5,2,-1,-1,4
13242.5,4,0,1,5
13242.5,6,3,4,7
13242.5,7,5,5,6
13242.5,7,4,4,7
13242.5,6,4,4,4
13242.5,6,4,3,2
13242.5,4,3,2,1
13242.5,3,6,4,2
13242.5,4,9,8,2
13242.5,3,9,7,0
13242.5,1,9,8,-1
13242.5,-4,0,0,-4
13242.5,-7,-6,-6,-4
13242.5,-4,-4,-6,-4
13242.5,-1,-1,-1,0
13242.5,3,4,1,2
13242.5,7,8,6,5
13242.5,8,9,7,4
13242.5,6,7,4,4
13242.5,5,5,3,4
13242.5,5,1,1,7
13242.5,7,-1,0,11
13242.5,11,0,0,8
13242.5,9,2,0,5
13242.5,4,-2,-4,0
13242.5,0,-1,-4,-2
13242.5,1,6,4,0
13242.5,0,4,5,1
13242.6,0,2,2,1
13242.6,0,0,1,1
13242.6,1,2,1,0
13242.6,1,4,3,0
13242.6,2,6,6,3
13242.6,4,8,7,4
13242.6,4,6,4,2
13242.6,3,4,2,0
13242.6,1,1,0,0
13242.6,0,0,0,1
13242.6,2,1,2,4
13242.6,6,5,5,5
13242.6,6,4,3,2
13242.6,3,3,2,2
13242.6,2,3,3,2
13242.6,3,2,1,2
13242.6,3,3,2,3
13242.6,4,3,1,1
13242.6,2,3,1,1
13242.6,2,4,2,1
13242.6,4,5,4,2
13242.6,3,6,4,1
13242.6,3,4,3,0
13242.6,1,2,0,-1
13242.6,0,0,0,0
13242.6,2,1,0,1
13242.6,2,2,0,2
13242.6,3,1,1,3
13242.6,3,0,-1,2
13242.6,3,0,0,4
13242.6,8,10,9,8
13242.6,9,12,10,6
13242.6,4,5,3,1
13242.6,0,2,1,0
13242.6,1,2,1,0
13242.6,0,0,0,-1
13242.6,0,0,1,0
13242.6,1,2,1,2
13242.6,2,3,3,3
13242.6,3,3,3,2
13242.6,2,3,3,3
13242.6,3,4,3,2
13242.6,4,5,5,5
13242.6,4,5,4,4
13242.6,3,1,0,1
13242.6,1,0,-1,0
13242.6,1,-1,-1,1
13242.6,2,2,1,3
13242.6,5,6,6,4
13242.6,7,8,6,3
13242.6,4,5,3,1
13242.6,2,5,3,1
13242.6,3,4,4,2
13242.6,2,4,3,1
13242.6,1,1,0,0
13242.6,2,2,0,0
13242.6,3,7,4,2
13242.6,3,4,2,0
13242.6,1,3,1,0
13242.6,1,2,0,0
13242.6,1,0,0,0
13242.6,0,-2,-2,-1
13242.6,0,-1,0,2
13242.6,4,3,2,6
13242.6,7,6,5,6
13242.6,7,7,6,6
13242.6,6,7,5,4
13242.6,5,5,5,5
13242.6,5,6,5,4
13242.6,4,5,3,1
13242.6,0,0,0,-2
13242.6,-2,-1,-2,-1
13242.6,-1,-1,-1,0
13242.6,0,0,0,2
13242.6,3,2,2,3
13242.6,5,7,6,4
13242.6,5,6,5,4
13242.6,4,3,3,3
13242.6,4,4,2,1
13242.6,3,3,3,2
13242.6,3,3,2,2
13242.6,2,2,1,2
13242.6,1,0,0,2
13242.6,2,-1,-1,3
13242.6,5,3,2,4
13242.6,6,5,3,4
13242.6,6,6,4,4
13242.6,5,6,4,3
13242.6,3,5,3,2
13242.6,3,4,3,0
13242.6,2,4,2,0
13242.6,1,2,1,0
13242.6,0,2,1,0
13242.6,2,3,2,1
13242.6,3,5,2,0
13242.6,1,3,2,0
13242.6,1,3,2,1
13242.6,2,4,3,1
13242.6,2,5,3,0
13242.6,1,3,1,-1
13242.6,0,1,1,0
13242.6,0,2,2,1
13242.6,1,1,1,2
13242.6,0,-3,-2,2
13242.6,2,-2,-2,4
13242.6,5,1,0,6
13242.6,9,6,5,9
13242.6,12,9,8,9
13242.6,10,9,7,6
13242.6,6,5,4,2
13242.6,4,5,3,0
13242.6,1,5,3,0
13242.6,0,3,2,-2
13242.6,-1,0,0,-3
13242.6,-2,0,0,-2
13242.6,-1,2,3,0
13242.6,0,4,4,2
13242.6,1,1,1,3
13242.6,3,1,2,5
13242.6,6,5,4,6
13242.6,6,5,2,3
13242.6,4,3,2,2
13242.6,0,-1,-1,1
13242.6,2,-1,0,3
13242.6,5,4,4,5
13242.6,6,7,6,5
13242.6,7,8,7,5
13242.6,6,5,3,3
13242.6,4,2,0,0
13242.6,3,1,-1,0
13242.6,1,-1,-4,0
13242.6,0,-5,-6,0
13242.6,1,-5,-6,2
13242.6,3,-3,-3,6
13242.6,9,3,2,8
13242.6,14,19,15,9
13242.6,9,14,12,4
13242.6,7,17,14,3
13242.6,2,9,7,-2
13242.6,-7,-6,-7,-10
13242.6,-10,-9,-9,-7
13242.6,-4,-3,-1,0
13242.6,2,4,4,4
13242.6,8,13,11,5
13242.6,9,17,14,4
13242.6,0,5,4,-2
13242.6,-3,-1,0,-2
13242.6,-3,-3,-2,-1
13242.6,0,0,0,1
13242.6,2,1,1,2
13242.6,4,4,3,3
13242.6,4,4,4,5
13242.6,5,4,4,5
13242.6,5,4,3,3
13242.6,5,5,4,4
13242.6,3,4,3,3
13242.6,3,3,2,2
13242.6,3,4,3,2
13242.6,3,2,0,0
13242.6,1,1,0,-1
13242.6,0,0,-1,-1
13242.6,-1,-1,-1,0
13242.6,0,-1,-1,3
13242.6,7,7,6,7
13242.6,10,12,10,8
13242.6,9,11,8,5
13242.6,6,8,7,8
13242.6,8,5,5,10
13242.6,7,0,-1,2
13242.6,1,-5,-6,-2
13242.6,-1,-4,-5,-3
13242.6,0,-1,-2,-1
13242.6,0,1,0,0
13242.6,0,1,1,0
13242.7,0,0,0,1
13242.7,2,1,2,3
13242.7,6,5,5,5
13242.7,5,4,3,4
13242.7,3,3,3,3
13242.7,4,3,3,4
13242.7,5,5,4,4
13242.7,6,6,5,4
13242.7,5,5,4,3
13242.7,3,2,2,2
13242.7,2,3,2,2
13242.7,3,4,2,2
13242.7,4,3,1,0
13242.7,1,2,0,0
13242.7,1,3,2,1
13242.7,4,7,6,4
13242.7,4,6,5,2
13242.7,2,4,2,0
13242.7,-1,0,-1,-2
13242.7,-1,-1,-2,-2
13242.7,0,2,1,1
13242.7,3,4,4,3
13242.7,5,5,5,4
13242.7,5,4,2,2
13242.7,3,3,2,2
13242.7,2,2,2,3
13242.7,3,0,0,3
13242.7,6,5,4,4
13242.7,6,6,5,3
13242.7,3,3,2,1
13242.7,1,2,0,0
13242.7,1,2,1,0
13242.7,1,0,0,0
13242.7,1,0,0,1
13242.7,3,1,1,2
13242.7,3,3,3,4
13242.7,5,4,3,3
13242.7,4,5,4,4
13242.7,3,4,3,3
13242.7,3,4,2,1
13242.7,2,2,1,2
13242.7,3,2,2,2
13242.7,3,4,3,3
13242.7,3,4,3,2
13242.7,3,4,3,2
13242.7,2,3,3,3
13242.7,2,3,3,2
13242.7,2,4,2,1
13242.7,1,2,1,0
13242.7,2,4,2,1
13242.7,2,4,4,2
13242.7,3,4,3,1
13242.7,1,3,2,1
13242.7,2,2,1,1
13242.7,2,2,1,2
13242.7,3,3,2,1
13242.7,2,1,1,1
13242.7,2,1,0,1
13242.7,4,5,4,4
13242.7,5,8,6,3
13242.7,5,6,3,2
13242.7,1,0,0,0
13242.7,0,-2,-3,0
13242.7,1,-2,-2,1
13242.7,2,-2,-2,3
13242.7,4,-2,-1,6
13242.7,7,2,1,8
13242.7,10,5,4,7
13242.7,10,12,9,6
13242.7,11,20,16,4
13242.7,4,13,10,-1
13242.7,-3,0,0,-5
13242.7,-6,-3,-3,-5
13242.7,-4,-2,-2,-3
13242.7,-2,-1,-1,-1
13242.7,1,4,3,3
13242.7,4,6,6,4
13242.7,5,6,5,4
13242.7,4,4,4,2
13242.7,2,1,0,1
13242.7,0,0,0,1
13242.7,2,0,0,3
13242.7,4,2,1,3
13242.7,6,5,4,3
13242.7,5,6,5,3
13242.7,5,10,9,4
13242.7,4,9,8,3
13242.7,3,7,5,0
13242.7,0,1,0,-4
13242.7,-4,-4,-5,-4
13242.7,-4,-6,-5,0
13242.7,1,-3,-3,5
13242.7,6,0,0,7
13242.7,11,5,4,8
13242.7,11,8,5,7
13242.7,9,10,7,5
13242.7,8,11,8,3
13242.7,4,7,5,1
13242.7,0,1,0,0
13242.7,-1,-3,-4,-3
13242.7,-3,-6,-4,0
13242.7,-1,-5,-3,2
13242.7,2,-3,-1,4
13242.7,5,1,1,6
13242.7,10,11,10,8
13242.7,10,13,11,4
13242.7,5,7,4,0
13242.7,1,3,0,-1
13242.7,0,1,0,-1
13242.7,0,0,1,0
13242.7,2,4,3,2
13242.7,4,7,6,3
13242.7,4,6,6,3
13242.7,3,5,3,1
13242.7,0,2,1,0
13242.7,0,2,2,0
13242.7,1,3,3,1
13242.7,2,4,3,1
13242.7,2,3,2,1
13242.7,1,0,0,0
13242.7,2,2,1,2
13242.7,3,2,2,4
13242.7,4,2,0,3
13242.7,4,0,0,3
13242.7,3,0,-1,2
13242.7,4,0,-1,4
13242.7,7,5,4,7
13242.7,8,7,7,7
13242.7,8,7,5,4
13242.7,5,5,3,1
13242.7,2,4,2,0
13242.7,1,3,1,0
13242.7,0,1,0,-1
13242.7,0,1,1,0
13242.7,2,3,2,1
13242.7,1,2,1,0
13242.7,0,2,1,1
13242.7,2,3,3,1
13242.7,3,5,3,3
13242.7,4,5,4,3
13242.7,4,5,4,1
13242.7,2,5,4,0
13242.7,1,4,3,1
13242.7,2,5,5,2
13242.7,2,2,2,1
13242.7,0,0,-1,0
13242.7,0,-1,-1,0
13242.7,1,0,0,3
13242.7,3,-1,0,5
13242.7,5,-1,-1,6
13242.7,8,2,1,7
13242.7,9,6,4,6
13242.7,10,15,11,2
13242.7,5,15,11,0
13242.7,0,6,5,-1
13242.7,-1,4,4,-1
13242.7,-1,2,1,-4
13242.7,-4,0,0,-2
13242.7,-1,1,2,3
13242.7,4,4,6,10
13242.7,10,5,5,12
13242.7,11,0,-2,4
13242.7,4,-4,-7,0
13242.7,2,-2,-4,1
13242.7,4,3,0,1
13242.7,4,7,3,1
13242.7,2,4,2,-1
13242.7,1,4,3,0
13242.7,1,4,4,0
13242.7,0,4,2,0
13242.7,2,5,4,1
13242.7,1,3,3,1
13242.7,0,3,2,0
13242.8,1,2,3,2
13242.8,2,2,1,2
13242.8,2,-1,-1,3
13242.8,3,-1,-1,4
13242.8,5,2,2,6
13242.8,8,6,6,8
13242.8,9,8,6,6
13242.8,7,8,6,3
13242.8,3,6,4,1
13242.8,2,3,2,1
13242.8,3,8,6,0
13242.8,2,11,8,0
13242.8,-2,2,1,-3
13242.8,-4,-3,-3,-4
13242.8,-3,-4,-3,-1
13242.8,0,-1,0,1
13242.8,3,2,2,3
13242.8,6,6,6,6
13242.8,6,7,6,6
13242.8,5,3,3,4
13242.8,4,1,0,2
13242.8,3,1,0,2
13242.8,4,4,2,2
13242.8,4,7,5,3
13242.8,5,5,4,1
13242.8,2,2,0,0
13242.8,1,1,0,0
13242.8,2,2,1,1
13242.8,2,2,1,2
13242.8,2,0,0,2
13242.8,4,3,2,3
13242.8,6,7,5,2
13242.8,5,8,7,2
13242.8,2,8,7,3
13242.8,2,5,5,2
13242.8,1,1,1,2
13242.8,0,-4,-4,-1
13242.8,-3,-9,-9,-2
13242.8,-2,-9,-7,2
13242.8,4,-1,0,7
13242.8,9,5,4,9
13242.8,10,9,8,8
13242.8,8,9,7,7
13242.8,8,9,8,7
13242.8,7,7,5,3
13242.8,1,0,-2,0
13242.8,0,-2,-3,0
13242.8,1,1,2,4
13242.8,4,5,4,6
13242.8,6,7,6,4
13242.8,4,6,4,1
13242.8,4,11,8,0
13242.8,0,5,4,-2
13242.8,-2,1,1,-2
13242.8,-1,0,0,-2
13242.8,-2,-1,-2,-3
13242.8,-2,0,0,0
13242.8,0,2,2,2
13242.8,4,5,4,3
13242.8,5,6,5,4
13242.8,5,4,2,2
13242.8,3,4,2,1
13242.8,3,4,3,3
13242.8,5,4,3,4
13242.8,5,4,3,2
13242.8,3,2,0,0
13242.8,0,1,1,0
13242.8,1,4,3,2
13242.8,2,4,4,3
13242.8,3,4,4,3
13242.8,3,3,2,1
13242.8,2,3,2,1
13242.8,2,2,1,1
13242.8,3,3,2,3
13242.8,5,4,2,1
13242.8,3,2,0,0
13242.8,1,0,0,0
13242.8,2,2,1,1
13242.8,3,5,5,4
13242.8,5,8,7,3
13242.8,5,8,6,2
13242.8,3,7,5,1
13242.8,1,6,5,0
13242.8,-1,1,2,0
13242.8,-3,-5,-4,0
13242.8,-2,-8,-7,2
13242.8,2,-5,-4,5
13242.8,8,3,3,8
13242.8,10,9,7,8
13242.8,10,11,9,6
13242.8,7,8,6,4
13242.8,3,3,1,1
13242.8,1,0,-2,-1
13242.8,0,-1,-3,-1
13242.8,0,-1,-1,1
13242.8,5,4,2,5
13242.8,8,8,6,6
13242.8,7,5,3,2
13242.8,2,2,0,0
13242.8,3,5,4,0
13242.8,2,7,6,1
13242.8,0,3,3,0
13242.8,-1,1,0,-2
13242.8,-2,0,-1,-2
13242.8,-1,1,1,0
13242.8,0,4,5,3
13242.8,3,5,6,5
13242.8,5,5,5,4
13242.8,4,3,2,3
13242.8,3,3,2,3
13242.8,3,3,3,4
13242.8,4,3,3,4
13242.8,5,3,2,2
13242.8,3,4,2,2
13242.8,3,3,2,2
13242.8,3,4,3,3
13242.8,3,4,4,2
13242.8,2,2,0,0
13242.8,0,0,-1,0
13242.8,0,-1,-1,2
13242.8,2,0,0,3
13242.8,4,2,2,4
13242.8,5,4,3,5
13242.8,6,5,5,5
13242.8,6,3,2,3
13242.8,4,2,1,3
13242.8,4,3,2,3
13242.8,6,6,4,4
13242.8,5,8,5,1
13242.8,6,11,8,0
13242.8,1,6,3,-1
13242.8,-2,0,-1,-3
13242.8,-1,0,-1,-3
13242.8,-1,0,0,0
13242.8,-1,-1,-2,0
13242.8,1,0,0,3
13242.8,2,0,0,4
13242.8,4,0,0,6
13242.8,8,3,2,7
13242.8,9,7,6,7
13242.8,8,7,6,5
13242.8,6,8,7,4
13242.8,5,8,7,1
13242.8,2,6,4,0
13242.8,0,6,5,-1
13242.8,0,5,4,-2
13242.8,-4,0,0,-1
13242.8,-2,-1,-1,0
13242.8,0,0,0,2
13242.8,2,2,1,2
13242.8,4,2,1,3
13242.8,4,3,2,3
13242.8,5,5,4,4
13242.8,6,7,4,3
13242.8,4,5,4,1
13242.8,3,4,4,2
13242.8,3,5,4,2
13242.8,3,5,3,1
13242.8,1,2,1,0
13242.8,0,-2,-2,0
13242.8,0,-3,-3,1
13242.8,3,0,0,5
13242.8,7,3,2,6
13242.8,8,3,2,5
13242.8,7,4,2,4
13242.8,7,6,4,5
13242.8,7,8,5,3
13242.8,5,7,4,1
13242.8,2,2,1,0
13242.8,0,1,0,-1
13242.8,0,2,1,0
13242.8,0,2,1,0
13242.8,0,1,0,0
13242.8,0,2,1,1
13242.8,2,2,1,2
13242.9,2,2,3,3
13242.9,4,4,3,2
13242.9,3,2,2,2
13242.9,4,4,3,3
13242.9,3,4,4,3
13242.9,3,3,3,4
13242.9,4,4,4,3
13242.9,3,4,3,3
13242.9,2,4,4,2
13242.9,1,2,2,1
13242.9,2,4,4,1
13242.9,2,5,4,0
13242.9,0,2,1,-2
13242.9,-2,1,0,-2
13242.9,0,2,1,0
13242.9,0,4,4,2
13242.9,3,5,4,3
13242.9,4,5,4,4
13242.9,4,3,2,3
13242.9,6,5,7,10
13242.9,10,6,6,12
13242.9,11,2,0,5
13242.9,5,-1,-3,2
13242.9,3,-2,-5,-1
13242.9,0,-1,-4,-3
13242.9,0,-1,-2,-1
13242.9,1,1,0,0
13242.9,2,4,3,2
13242.9,5,7,5,4
13242.9,6,9,7,2
13242.9,2,5,3,0
13242.9,-1,0,0,0
13242.9,0,1,2,2
13242.9,3,5,5,4
13242.9,4,6,5,1
13242.9,2,3,2,1
13242.9,0,2,1,0
13242.9,2,3,3,2
13242.9,3,4,4,3
13242.9,3,3,2,1
13242.9,2,2,2,2
13242.9,3,4,4,3
13242.9,5,6,5,4
13242.9,5,6,4,3
13242.9,4,5,3,0
13242.9,0,1,0,-1
13242.9,-1,-1,0,-1
13242.9,-1,-2,0,2
13242.9,1,0,2,5
13242.9,4,2,1,4
13242.9,6,4,3,4
13242.9,6,6,5,5
13242.9,5,5,3,3
13242.9,5,6,3,3
13242.9,6,8,5,0
13242.9,3,7,5,0
13242.9,2,8,5,-1
13242.9,0,3,2,-1
13242.9,-2,0,-1,0
13242.9,0,0,-2,0
13242.9,0,-2,-2,0
13242.9,2,2,1,2
13242.9,3,3,2,3
13242.9,4,0,0,3
13242.9,4,1,1,4
13242.9,5,2,2,6
13242.9,5,1,0,5
13242.9,4,-1,-1,5
13242.9,6,1,0,6
13242.9,8,7,6,6
13242.9,9,13,10,5
13242.9,3,3,2,2
13242.9,1,0,0,1
13242.9,2,1,1,1
13242.9,2,2,1,1
13242.9,1,2,1,1
13242.9,2,3,2,2
13242.9,3,4,3,3
13242.9,3,4,3,1
13242.9,1,2,1,0
13242.9,1,3,2,0
13242.9,1,4,3,1
13242.9,3,5,4,2
13242.9,3,4,3,0
13242.9,2,2,1,0
13242.9,0,1,1,0
13242.9,2,3,3,3
13242.9,3,3,3,4
