Program Time [s],data 0,data 1,data 2,data 3
3955.31,2,7,3,0
3955.31,1,8,5,0
3955.31,2,10,7,-1
3955.31,-1,6,3,-4
3955.31,-2,5,6,-1
3955.31,-2,7,10,1
3955.31,-2,5,7,-1
3955.31,-3,1,2,-3
3955.31,-5,-2,-1,-3
3955.31,-4,-2,0,-1
3955.31,-1,0,2,2
3955.32,2,3,4,3
3955.32,3,5,5,5
3955.32,5,6,5,5
3955.32,5,5,5,3
3955.32,2,2,1,2
3955.32,2,1,0,1
3955.32,2,0,-3,0
3955.32,4,0,-4,0
3955.32,7,4,0,3
3955.32,8,8,3,5
3955.32,9,7,6,6
3955.32,8,6,4,5
3955.32,6,5,3,3
3955.32,4,0,0,2
3955.32,2,-4,-4,2
3955.32,2,-3,-1,4
3955.32,5,0,0,7
3955.33,6,0,1,8
3955.33,8,2,1,6
3955.33,6,2,0,3
3955.33,4,3,2,3
3955.33,4,5,4,4
3955.33,4,5,4,3
3955.33,4,5,3,0
3955.33,2,5,3,0
3955.33,1,6,4,-1
3955.33,0,9,9,0
3955.33,0,7,3,-4
3955.33,0,6,2,-5
3955.33,-1,6,2,-4
3955.33,-2,4,2,-4
3955.33,-2,4,3,-2
3955.33,-2,1,1,-1
3955.33,0,3,2,1
3955.33,2,4,5,4
3955.34,2,3,4,4
3955.34,2,1,1,3
3955.34,3,2,3,5
3955.34,6,5,7,9
3955.34,7,5,7,6
3955.34,3,2,4,3
3955.34,0,0,1,1
3955.34,0,-1,0,1
3955.34,0,0,0,1
3955.34,3,1,0,1
3955.34,4,2,0,1
3955.34,5,3,0,0
3955.34,7,5,1,4
3955.34,7,3,1,6
3955.34,7,0,1,8
3955.34,7,0,2,10
3955.34,7,0,1,8
3955.35,7,0,0,6
3955.35,7,0,-4,0
3955.35,5,0,-7,-3
3955.35,5,5,-2,-1
3955.35,7,9,4,4
3955.35,8,9,7,5
3955.35,7,11,8,4
3955.35,6,11,11,3
3955.35,1,9,10,1
3955.35,-1,7,11,1
3955.35,-3,3,6,-3
3955.35,-8,-1,0,-9
3955.35,-9,-2,-2,-8
3955.35,-7,-1,0,-5
3955.35,-4,1,0,-3
3955.35,-1,1,0,-1
3955.35,2,5,4,5
3955.35,6,7,7,7
3955.36,6,7,8,6
3955.36,4,3,5,5
3955.36,3,2,2,3
3955.36,4,2,1,2
3955.36,3,2,1,2
3955.36,3,1,1,2
3955.36,3,1,0,2
3955.36,4,2,2,4
3955.36,6,4,2,3
3955.36,6,4,2,3
3955.36,5,3,2,3
3955.36,4,3,3,4
3955.36,4,3,4,6
3955.36,2,-2,0,6
3955.36,3,-3,-1,5
3955.36,3,-2,-1,4
3955.36,3,-4,-1,4
3955.37,5,-1,-1,5
3955.37,6,0,-2,2
3955.37,6,2,0,2
3955.37,8,8,4,4
3955.37,7,9,5,3
3955.37,6,8,6,3
3955.37,6,10,7,2
3955.37,4,8,5,-1
3955.37,0,6,4,-3
3955.37,-1,7,5,-2
3955.37,-2,6,7,-2
3955.37,-2,5,6,-1
3955.37,-2,3,1,-6
3955.37,-4,1,0,-6
3955.37,-4,0,-1,-3
3955.37,-2,0,0,0
3955.37,1,2,1,2
3955.38,4,6,4,4
3955.38,6,6,4,4
3955.38,5,4,3,4
3955.38,4,3,4,6
3955.38,5,5,7,8
3955.38,5,4,5,6
3955.38,4,1,1,2
3955.38,1,0,0,0
3955.38,0,0,0,1
3955.38,2,1,0,1
3955.38,3,1,-1,1
3955.38,3,1,-1,1
3955.38,4,3,2,4
3955.38,5,1,1,4
3955.38,4,0,0,7
3955.38,6,0,1,8
3955.38,8,2,2,7
3955.39,6,-2,-7,0
3955.39,5,-1,-8,-1
3955.39,6,4,0,4
3955.39,11,11,8,9
3955.39,10,11,9,8
3955.39,7,8,7,5
3955.39,4,5,4,1
3955.39,1,5,5,0
3955.39,0,4,4,-1
3955.39,-2,4,3,-2
3955.39,0,6,3,-5
3955.39,-2,6,3,-6
3955.39,-4,5,2,-7
3955.39,-5,2,2,-5
3955.39,-3,4,4,-2
3955.39,-1,2,4,1
3955.39,1,3,4,4
3955.39,1,1,2,4
3955.4,2,1,1,4
3955.4,3,2,3,5
3955.4,5,3,3,5
3955.4,5,4,3,4
3955.4,4,2,0,2
3955.4,3,1,-1,1
3955.4,4,3,0,2
3955.4,6,6,3,6
3955.4,9,7,3,4
3955.4,6,4,2,3
3955.4,4,2,0,1
3955.4,3,2,0,1
3955.4,3,2,2,4
3955.4,4,0,-1,3
3955.4,3,-2,-2,4
3955.4,5,-2,-1,5
3955.4,6,-1,0,6
3955.41,7,0,0,7
3955.41,8,4,3,7
3955.41,8,4,4,6
3955.41,6,4,3,3
3955.41,4,3,2,1
3955.41,3,4,3,0
3955.41,2,5,2,0
3955.41,1,5,4,-1
3955.41,0,6,4,-2
3955.41,-1,5,5,-2
3955.41,-1,7,6,-1
3955.41,0,7,6,-2
3955.41,-1,5,4,-2
3955.41,-3,4,4,-1
3955.41,-2,2,4,0
3955.41,-2,0,2,0
3955.41,0,1,3,2
3955.41,1,2,4,3
3955.42,3,4,5,5
3955.42,2,2,4,5
3955.42,3,2,1,2
3955.42,3,0,-2,-1
3955.42,3,2,0,0
3955.42,4,4,1,3
3955.42,6,4,2,5
3955.42,8,5,2,5
3955.42,7,4,1,3
3955.42,6,3,0,2
3955.42,6,4,2,3
3955.42,5,3,1,3
3955.42,4,0,0,2
3955.42,1,-1,-1,5
3955.42,4,-1,0,6
3955.42,5,1,3,8
3955.42,5,-1,2,7
3955.43,5,-1,0,5
3955.43,5,0,0,4
3955.43,5,1,-1,0
3955.43,4,2,-1,0
3955.43,5,4,0,1
3955.43,6,7,3,2
3955.43,6,9,7,2
3955.43,6,11,9,2
3955.43,1,9,9,1
3955.43,0,9,9,0
3955.43,-2,4,3,-5
3955.43,-4,3,1,-7
3955.43,-5,3,1,-5
3955.43,-3,2,0,-4
3955.43,-3,0,-1,-3
3955.43,-1,2,3,1
3955.43,2,4,6,5
3955.44,4,3,3,4
3955.44,4,2,3,5
3955.44,5,4,5,6
3955.44,5,5,7,7
3955.44,5,3,4,5
3955.44,3,1,0,1
3955.44,1,1,0,0
3955.44,1,0,0,1
3955.44,2,2,0,2
3955.44,4,2,0,2
3955.44,5,3,0,2
3955.44,6,5,1,1
3955.44,5,3,0,3
3955.44,5,2,0,4
3955.44,4,-1,-1,5
3955.44,6,-1,-1,6
3955.44,7,0,0,8
3955.44,8,0,0,6
3955.45,8,3,3,8
3955.45,8,3,1,6
3955.45,7,4,2,4
3955.45,5,4,2,1
3955.45,3,3,1,0
3955.45,3,5,3,1
3955.45,3,8,6,1
3955.45,2,8,6,1
3955.45,2,10,8,0
3955.45,0,9,12,1
3955.45,-2,5,9,-1
3955.45,-5,1,3,-4
3955.45,-7,0,2,-5
3955.45,-6,0,-1,-7
3955.45,-7,-5,-9,-10
3955.45,-4,-3,-9,-8
3955.45,1,3,-1,0
3955.46,8,10,6,7
3955.46,11,10,7,8
3955.46,10,11,9,9
3955.46,11,9,6,7
3955.46,8,7,6,7
3955.46,5,4,6,6
3955.46,2,2,5,6
3955.46,2,0,3,4
3955.46,1,0,1,2
3955.46,0,-3,-2,0
3955.46,0,-2,-3,0
3955.46,0,-1,-3,0
3955.46,2,0,-1,2
3955.46,3,0,-1,4
3955.46,4,0,0,6
3955.46,6,0,0,7
3955.46,8,1,1,8
3955.46,8,1,1,7
3955.47,9,3,2,7
3955.47,8,4,2,6
3955.47,8,5,2,3
3955.47,5,6,3,2
3955.47,4,5,4,1
3955.47,2,5,5,2
3955.47,2,7,7,1
3955.47,0,6,4,-2
3955.47,-1,7,5,-2
3955.47,-2,5,4,-4
3955.47,-3,4,2,-5
3955.47,-4,3,2,-4
3955.47,-3,2,0,-5
3955.47,-1,1,-2,-5
3955.47,-1,1,0,-2
3955.47,2,5,4,3
3955.47,5,7,8,6
3955.48,5,6,9,8
3955.48,5,5,6,7
3955.48,5,4,4,5
3955.48,3,1,0,1
3955.48,2,0,-2,-1
3955.48,1,1,-2,-1
3955.48,3,3,-2,0
3955.48,5,4,-2,0
3955.48,6,5,0,2
3955.48,7,6,5,6
3955.48,7,3,2,6
3955.48,7,4,6,8
3955.48,7,4,6,8
3955.48,4,1,4,7
3955.48,2,-4,0,4
3955.48,1,-5,-3,3
3955.48,2,-4,-2,4
3955.48,3,0,0,5
3955.49,5,1,0,3
3955.49,4,1,0,4
3955.49,5,3,2,3
3955.49,4,3,2,3
3955.49,5,5,2,2
3955.49,5,6,4,0
3955.49,3,8,5,0
3955.49,2,8,5,0
3955.49,2,9,7,0
3955.49,1,9,6,-2
3955.49,-1,6,4,-5
3955.49,-4,2,1,-5
3955.49,-3,2,1,-4
3955.49,-2,2,2,-2
3955.49,-1,1,2,0
3955.49,0,1,2,0
3955.49,1,3,3,4
3955.5,4,4,5,5
3955.5,5,6,7,8
3955.5,6,5,6,6
3955.5,4,3,4,4
3955.5,3,1,1,2
3955.5,1,0,0,2
3955.5,3,2,2,3
3955.5,3,1,1,2
3955.5,2,0,0,1
3955.5,2,0,1,2
3955.5,3,1,0,2
3955.5,4,1,-1,0
3955.5,3,1,-2,0
3955.5,3,-2,-2,3
3955.5,5,0,0,7
3955.5,7,2,2,9
3955.5,8,1,2,9
3955.5,9,4,4,9
3955.51,10,5,4,7
3955.51,9,6,4,5
3955.51,7,6,3,1
3955.51,3,4,1,0
3955.51,0,3,1,0
3955.51,2,5,4,0
3955.51,2,7,5,0
3955.51,1,8,5,-2
3955.51,-1,6,3,-5
3955.51,-3,5,2,-5
3955.51,-3,4,2,-5
3955.51,-2,3,0,-5
3955.51,-1,2,0,-4
3955.51,-1,2,1,-1
3955.51,0,3,3,2
3955.51,3,5,6,5
3955.51,4,6,7,6
3955.52,5,5,5,5
3955.52,5,4,5,5
3955.52,3,2,2,3
3955.52,2,0,0,2
3955.52,2,0,1,3
3955.52,4,2,2,3
3955.52,3,2,1,3
3955.52,4,2,1,2
3955.52,4,2,1,3
3955.52,5,3,1,3
3955.52,5,2,2,3
3955.52,3,1,1,2
3955.52,2,-1,-1,3
3955.52,2,-2,-1,4
3955.52,4,-1,0,6
3955.52,6,0,0,6
3955.52,7,0,0,6
3955.52,7,3,3,7
3955.53,8,3,2,6
3955.53,7,5,5,5
3955.53,6,6,5,4
3955.53,4,4,3,2
3955.53,2,2,1,0
3955.53,2,5,2,-2
3955.53,1,5,1,-3
3955.53,0,5,0,-6
3955.53,0,6,0,-6
3955.53,1,9,4,-3
3955.53,1,10,7,0
3955.53,1,6,5,-1
3955.53,0,4,3,0
3955.53,0,4,6,4
3955.53,2,4,7,5
3955.53,1,1,3,2
3955.53,0,0,0,0
3955.54,0,0,1,2
3955.54,1,0,0,1
3955.54,2,2,0,2
3955.54,2,2,1,3
3955.54,4,3,2,4
3955.54,6,4,2,4
3955.54,5,4,2,4
3955.54,5,3,2,4
3955.54,5,3,2,4
3955.54,6,6,7,7
3955.54,5,3,4,4
3955.54,2,1,1,2
3955.54,0,-3,0,4
3955.54,0,-6,-3,4
3955.54,1,-6,-3,4
3955.54,4,-3,-3,6
3955.54,7,0,0,7
3955.55,10,3,0,5
3955.55,9,5,1,3
3955.55,8,7,4,3
3955.55,8,8,5,4
3955.55,5,7,4,2
3955.55,5,5,0,-2
3955.55,3,6,0,-4
3955.55,2,9,4,-2
3955.55,3,11,4,-4
3955.55,1,9,6,-2
3955.55,0,9,7,-2
3955.55,0,6,4,-3
3955.55,-2,3,0,-5
3955.55,-3,1,0,-3
3955.55,-2,1,0,-1
3955.55,0,3,3,1
3955.55,2,3,3,3
3955.55,3,3,4,5
3955.56,4,5,9,9
3955.56,5,5,12,11
3955.56,4,3,10,9
3955.56,0,0,6,6
3955.56,-2,-3,2,4
3955.56,-2,-6,-1,1
3955.56,-1,-4,-3,0
3955.56,0,-2,-3,-1
3955.56,1,0,-3,0
3955.56,5,2,-4,-1
3955.56,7,6,-1,0
3955.56,9,9,6,8
3955.56,9,7,6,10
3955.56,9,3,4,9
3955.56,8,1,3,8
3955.56,6,0,-1,5
3955.56,4,-2,-3,1
3955.57,3,-1,-3,1
3955.57,5,2,0,3
3955.57,7,5,3,4
3955.57,7,6,4,3
3955.57,5,6,5,2
3955.57,4,8,4,0
3955.57,3,9,5,-1
3955.57,1,9,5,-2
3955.57,-1,7,4,-4
3955.57,-3,4,2,-6
3955.57,-4,3,1,-4
3955.57,-2,1,0,-4
3955.57,-1,3,0,-2
3955.57,0,4,2,0
3955.57,2,5,6,5
3955.57,5,7,8,6
3955.57,5,6,6,5
3955.57,3,4,5,2
3955.58,1,2,2,1
3955.58,0,0,-1,0
3955.58,0,0,-1,1
3955.58,1,0,0,3
3955.58,4,1,1,4
3955.58,5,1,1,5
3955.58,6,3,2,5
3955.58,6,4,3,6
3955.58,7,5,5,6
3955.58,5,5,5,5
3955.58,3,3,5,4
3955.58,1,-2,-1,1
3955.58,-1,-8,-9,-2
3955.58,0,-5,-7,1
3955.58,6,1,0,6
3955.58,9,2,1,7
3955.58,10,3,1,6
3955.59,9,4,2,5
3955.59,8,6,3,5
3955.59,6,5,3,3
3955.59,4,6,6,4
3955.59,3,5,6,3
3955.59,2,6,6,0
3955.59,0,3,2,-4
3955.59,-3,3,1,-5
3955.59,-3,4,0,-6
3955.59,-1,7,4,-3
3955.59,1,10,7,0
3955.59,2,9,7,0
3955.59,1,8,6,0
3955.59,0,2,1,0
3955.59,0,2,1,0
3955.59,1,2,2,1
3955.59,1,2,2,2
3955.6,2,3,4,5
3955.6,4,3,5,5
3955.6,3,2,2,4
3955.6,3,1,1,2
3955.6,2,0,1,2
3955.6,2,1,0,2
3955.6,3,1,0,2
3955.6,4,2,1,3
3955.6,5,4,2,4
3955.6,6,4,1,2
3955.6,4,3,0,2
3955.6,4,2,0,2
3955.6,3,0,-1,4
3955.6,4,-1,0,6
3955.6,6,0,0,6
3955.6,7,0,1,7
3955.6,6,0,0,6
3955.6,7,2,1,6
3955.61,7,4,5,8
3955.61,8,6,6,6
3955.61,4,3,2,2
3955.61,2,1,1,0
3955.61,2,3,2,0
3955.61,2,6,3,-1
3955.61,0,5,0,-5
3955.61,0,6,0,-6
3955.61,0,8,2,-5
3955.61,1,10,4,-4
3955.61,0,7,3,-4
3955.61,-1,6,2,-2
3955.61,0,6,6,1
3955.61,0,5,9,6
3955.61,2,5,9,7
3955.61,1,1,8,8
3955.61,0,-1,3,4
3955.62,0,-3,0,1
3955.62,0,-1,0,0
3955.62,0,-1,-1,0
3955.62,2,1,0,2
3955.62,3,3,2,4
3955.62,5,4,3,5
3955.62,7,5,4,6
3955.62,6,5,4,4
3955.62,5,4,1,2
3955.62,3,2,1,2
3955.62,4,3,1,2
3955.62,3,2,1,2
3955.62,2,-1,-2,2
3955.62,2,-3,-3,3
3955.62,3,-2,-3,5
3955.62,6,-1,-1,6
3955.62,8,2,0,6
3955.62,9,4,1,5
3955.63,9,6,2,5
3955.63,9,8,6,5
3955.63,7,8,7,4
3955.63,5,6,6,3
3955.63,3,5,4,0
3955.63,0,5,4,-2
3955.63,-1,6,6,-1
3955.63,-2,5,4,-3
3955.63,-3,2,0,-6
3955.63,-4,3,0,-5
3955.63,-3,4,2,-3
3955.63,-1,3,0,-4
3955.63,0,5,1,-2
3955.63,1,5,1,0
3955.63,3,4,2,0
3955.63,4,5,3,3
3955.63,5,5,4,4
3955.64,5,6,5,4
3955.64,5,5,5,5
3955.64,5,4,4,4
3955.64,3,1,2,4
3955.64,4,2,2,3
3955.64,2,1,1,3
3955.64,2,0,0,3
3955.64,3,0,0,4
3955.64,4,1,1,4
3955.64,4,2,2,4
3955.64,4,3,3,4
3955.64,4,0,0,2
3955.64,1,-4,-3,2
3955.64,3,-2,-2,4
3955.64,6,0,0,5
3955.64,5,0,0,5
3955.64,7,2,1,7
3955.65,9,5,3,6
3955.65,8,6,4,5
3955.65,6,6,5,4
3955.65,4,4,3,0
3955.65,2,5,3,1
3955.65,4,9,5,1
3955.65,2,7,5,-1
3955.65,0,7,5,-3
3955.65,-3,6,6,-3
3955.65,-3,6,6,-3
3955.65,-4,3,4,-3
3955.65,-4,1,0,-6
3955.65,-4,0,-3,-7
3955.65,-4,0,-3,-4
3955.65,0,3,0,1
3955.65,5,6,3,3
3955.65,7,8,6,6
3955.65,8,9,10,10
3955.66,8,6,7,7
3955.66,6,3,2,4
3955.66,4,2,0,1
3955.66,2,1,1,2
3955.66,2,0,0,2
3955.66,3,4,8,8
3955.66,5,5,9,9
3955.66,4,1,3,4
3955.66,0,-1,0,0
3955.66,0,-3,-5,-2
3955.66,0,-1,-5,-3
3955.66,0,-1,-4,0
3955.66,3,-2,-5,1
3955.66,6,2,-1,5
3955.66,9,4,3,9
3955.66,9,2,1,9
3955.66,10,4,4,11
3955.67,9,5,8,12
3955.67,9,5,6,8
3955.67,5,4,6,5
3955.67,3,2,3,1
3955.67,0,3,8,4
3955.67,1,4,6,1
3955.67,-1,3,6,0
3955.67,-3,0,-3,-10
3955.67,-5,0,-8,-14
3955.67,-4,3,-5,-11
3955.67,-1,7,-1,-6
3955.67,3,12,6,0
3955.67,6,14,10,4
3955.67,6,13,14,9
3955.67,6,8,11,7
3955.67,1,1,4,3
3955.67,-1,-2,1,1
3955.68,-2,-1,0,2
3955.68,0,-1,-1,0
3955.68,0,-2,-3,-1
3955.68,0,-3,-5,0
3955.68,3,0,-5,0
3955.68,7,5,3,6
3955.68,11,10,7,9
3955.68,12,11,7,7
3955.68,8,7,4,4
3955.68,5,5,4,2
3955.68,3,3,6,4
3955.68,1,0,2,4
3955.68,0,-4,0,4
3955.68,0,-6,-2,4
3955.68,2,-3,-1,5
3955.68,5,-2,-2,5
3955.68,7,0,-3,2
3955.68,6,0,-4,1
3955.69,8,5,0,3
3955.69,10,10,4,4
3955.69,9,11,8,5
3955.69,7,8,6,3
3955.69,4,7,5,0
3955.69,2,6,5,0
3955.69,1,7,4,-3
3955.69,-1,5,4,-4
3955.69,-2,5,6,-2
3955.69,-3,5,6,-1
3955.69,-4,4,4,-2
3955.69,-3,2,2,-2
3955.69,-3,0,0,-2
3955.69,-4,0,0,-1
3955.69,0,0,1,1
3955.69,2,3,5,5
3955.69,4,4,5,5
3955.7,4,3,5,6
3955.7,5,3,3,4
3955.7,4,2,2,3
3955.7,3,1,0,1
3955.7,4,2,0,2
3955.7,4,1,-1,1
3955.7,6,4,-1,1
3955.7,6,5,0,2
3955.7,8,6,2,4
3955.7,7,5,1,2
3955.7,6,3,0,2
3955.7,5,2,0,2
3955.7,4,0,0,5
3955.7,3,0,0,7
3955.7,5,0,1,8
3955.7,5,-1,1,7
3955.7,6,0,2,8
3955.7,6,2,4,7
3955.71,6,4,5,6
3955.71,4,4,4,3
3955.71,1,2,2,0
3955.71,0,1,1,0
3955.71,1,4,1,-2
3955.71,0,5,1,-3
3955.71,0,5,1,-4
3955.71,1,7,1,-4
3955.71,0,9,3,-3
3955.71,1,10,5,-3
3955.71,0,7,5,-1
3955.71,0,7,6,0
3955.71,0,4,4,0
3955.71,0,4,7,4
3955.71,2,5,9,6
3955.71,2,2,6,4
3955.71,0,0,0,0
3955.72,-1,-1,-1,0
3955.72,1,0,0,1
3955.72,2,1,0,2
3955.72,2,1,1,3
3955.72,5,4,3,5
3955.72,6,4,2,4
3955.72,6,5,3,3
3955.72,4,2,0,2
3955.72,3,0,-1,0
3955.72,4,2,0,3
3955.72,6,4,2,4
3955.72,6,3,1,3
3955.72,3,-2,-3,2
3955.72,2,-3,-3,4
3955.72,5,-1,-2,6
3955.72,8,2,1,9
3955.72,11,5,5,9
3955.72,11,6,5,7
3955.73,8,5,5,6
3955.73,5,4,3,2
3955.73,3,3,1,0
3955.73,1,0,-2,-4
3955.73,0,1,-3,-5
3955.73,0,4,2,-1
3955.73,3,10,9,1
3955.73,2,10,8,0
3955.73,1,9,6,-2
3955.73,0,8,6,-2
3955.73,-1,5,2,-5
3955.73,-4,2,0,-5
3955.73,-4,-1,-1,-2
3955.73,-1,1,1,1
3955.73,1,4,6,6
3955.73,3,4,6,6
3955.73,4,3,4,4
3955.74,4,2,2,3
3955.74,4,2,1,3
3955.74,4,2,0,2
3955.74,4,3,3,4
3955.74,4,3,4,5
3955.74,5,4,4,6
3955.74,4,3,3,3
3955.74,3,0,-1,1
3955.74,2,0,-1,0
3955.74,3,1,-1,0
3955.74,4,1,-1,1
3955.74,4,1,0,5
3955.74,6,1,1,8
3955.74,7,0,0,7
3955.74,8,0,1,7
3955.74,7,1,1,7
3955.74,7,2,1,6
3955.75,6,3,2,5
3955.75,5,3,3,4
3955.75,3,3,3,2
3955.75,1,1,0,0
3955.75,2,4,0,-1
3955.75,3,7,4,-1
3955.75,2,9,5,-1
3955.75,2,9,5,-1
3955.75,0,8,6,-1
3955.75,0,9,8,-1
3955.75,-1,6,6,-1
3955.75,-2,5,7,0
3955.75,-3,3,5,0
3955.75,-4,-2,0,-1
3955.75,-2,-1,-2,-2
3955.75,0,0,-2,-1
3955.75,1,1,0,0
3955.75,2,0,-2,0
3955.76,4,3,0,2
3955.76,8,7,3,5
3955.76,8,8,6,7
3955.76,9,6,3,4
3955.76,6,3,1,2
3955.76,5,4,1,3
3955.76,5,3,0,2
3955.76,4,1,0,2
3955.76,6,4,0,3
3955.76,9,8,5,6
3955.76,7,6,6,7
3955.76,4,0,2,7
3955.76,2,-4,-2,3
3955.76,3,-1,1,6
3955.76,4,0,3,8
3955.76,5,0,2,6
3955.76,3,0,2,4
3955.77,3,0,0,1
3955.77,1,1,0,0
3955.77,1,1,1,0
3955.77,0,0,0,0
3955.77,2,2,0,-1
3955.77,3,8,5,0
3955.77,3,10,7,0
3955.77,2,9,6,0
3955.77,2,8,6,0
3955.77,0,8,6,-1
3955.77,0,6,4,-2
3955.77,-1,4,2,-3
3955.77,-2,1,1,-1
3955.77,-1,2,2,0
3955.77,1,2,3,2
3955.77,1,3,2,1
3955.77,2,2,3,3
3955.77,2,2,1,3
3955.78,4,3,3,4
3955.78,5,4,3,5
3955.78,5,2,3,4
3955.78,4,2,2,4
3955.78,5,3,1,3
3955.78,4,3,1,2
3955.78,5,3,1,2
3955.78,4,2,0,1
3955.78,4,2,0,1
3955.78,3,2,1,3
3955.78,4,2,1,4
3955.78,3,-1,0,6
3955.78,5,1,3,8
3955.78,7,1,3,8
3955.78,5,-1,0,7
3955.78,5,0,0,5
3955.78,5,1,2,5
3955.79,4,3,3,5
3955.79,4,4,6,5
3955.79,2,4,4,2
3955.79,1,3,2,0
3955.79,0,3,1,-3
3955.79,0,3,-4,-9
3955.79,-1,4,-3,-8
3955.79,1,7,0,-5
3955.79,3,11,2,-3
3955.79,5,13,5,0
3955.79,5,12,7,1
3955.79,3,9,7,3
3955.79,3,5,4,2
3955.79,2,2,2,1
3955.79,1,1,1,2
3955.79,1,2,5,4
3955.79,1,1,3,3
3955.79,0,0,0,2
3955.8,2,-2,-4,-1
3955.8,2,0,-4,-1
3955.8,4,4,2,4
3955.8,8,8,9,9
3955.8,10,9,10,9
3955.8,7,8,8,7
3955.8,5,4,5,3
3955.8,0,0,0,0
3955.8,-2,-3,-1,-1
3955.8,-2,-2,-2,0
3955.8,-1,-5,-5,0
3955.8,1,-6,-8,0
3955.8,4,-3,-8,0
3955.8,7,0,-3,5
3955.8,11,5,3,10
3955.8,13,10,10,14
3955.8,14,11,11,13
3955.81,10,9,10,10
3955.81,6,4,7,4
3955.81,0,1,4,2
3955.81,0,1,4,0
3955.81,-2,1,2,-1
3955.81,-2,1,1,-4
3955.81,-3,3,2,-4
3955.81,-3,4,2,-5
3955.81,-2,6,3,-4
3955.81,-2,6,4,-3
3955.81,-1,5,4,-1
3955.81,0,4,3,0
3955.81,0,2,1,0
3955.81,1,3,1,1
3955.81,2,4,1,1
3955.81,3,4,4,4
3955.81,5,6,7,8
3955.81,5,5,8,8
3955.82,5,3,5,4
3955.82,2,0,0,1
3955.82,2,0,-2,0
3955.82,2,0,-3,0
3955.82,2,-1,-4,1
3955.82,7,4,1,5
3955.82,8,6,2,5
3955.82,8,6,2,4
3955.82,8,6,2,3
3955.82,5,5,2,3
3955.82,3,0,-1,2
3955.82,2,-3,-2,4
3955.82,3,-2,-2,5
3955.82,5,-1,0,6
3955.82,7,2,2,8
3955.82,8,4,5,9
3955.82,9,6,7,8
3955.83,8,5,4,4
3955.83,4,3,2,0
3955.83,0,1,0,-2
3955.83,0,2,0,-2
3955.83,0,5,2,-1
3955.83,1,7,4,-2
3955.83,0,6,3,-4
3955.83,0,6,1,-6
3955.83,0,6,1,-5
3955.83,0,7,4,-3
3955.83,1,8,5,0
3955.83,1,6,6,1
3955.83,0,3,5,2
3955.83,0,2,5,4
3955.83,1,3,6,6
3955.83,2,4,10,9
3955.83,2,0,5,5
3955.84,0,-2,-1,0
3955.84,0,-2,-3,-1
3955.84,0,0,-2,0
3955.84,3,2,1,3
3955.84,5,5,4,5
3955.84,6,5,5,7
3955.84,6,4,3,4
3955.84,4,0,-2,0
3955.84,2,0,-6,-2
3955.84,5,2,-3,0
3955.84,7,6,2,5
3955.84,8,3,4,8
3955.84,8,2,3,9
3955.84,8,1,1,7
3955.84,6,1,2,7
3955.84,6,2,4,8
3955.84,5,1,3,6
3955.84,3,1,2,3
3955.85,3,1,0,0
3955.85,1,1,0,-1
3955.85,2,2,0,-1
3955.85,2,5,0,-2
3955.85,2,5,0,-4
3955.85,3,12,8,1
3955.85,3,12,12,4
3955.85,2,11,12,2
3955.85,-1,5,4,-3
3955.85,-3,1,0,-6
3955.85,-4,2,0,-4
3955.85,-3,1,0,-2
3955.85,-1,1,2,0
3955.85,0,2,3,3
3955.85,3,3,4,4
3955.85,3,3,2,3
3955.85,2,2,1,3
3955.86,3,3,2,3
3955.86,4,3,2,4
3955.86,5,4,3,4
3955.86,4,3,1,2
3955.86,3,2,1,3
3955.86,3,2,1,4
3955.86,4,3,3,6
3955.86,6,4,3,5
3955.86,7,4,3,5
3955.86,6,4,2,3
3955.86,3,0,0,3
3955.86,2,-1,0,5
3955.86,5,0,0,6
3955.86,5,0,0,5
3955.86,4,-1,-1,4
3955.86,4,0,0,5
3955.86,6,2,1,5
3955.86,6,4,2,4
3955.87,5,5,1,1
3955.87,3,4,2,0
3955.87,2,3,1,0
3955.87,2,7,5,2
3955.87,3,9,7,2
3955.87,2,8,6,0
3955.87,0,7,4,-2
3955.87,-1,6,2,-4
3955.87,-2,4,1,-4
3955.87,-2,2,0,-4
3955.87,-1,3,1,-2
3955.87,0,2,2,0
3955.87,1,3,3,3
3955.87,3,5,7,5
3955.87,4,5,7,6
3955.87,4,3,6,6
3955.87,4,2,5,4
3955.88,2,1,2,2
3955.88,1,0,0,1
3955.88,0,0,0,1
3955.88,1,0,2,4
3955.88,3,2,1,3
3955.88,4,2,1,3
3955.88,4,1,-1,0
3955.88,3,1,-2,-1
3955.88,3,2,-1,1
3955.88,6,4,0,2
3955.88,6,2,0,4
3955.88,8,3,3,7
3955.88,8,4,6,9
3955.88,7,1,2,7
3955.88,6,1,1,4
3955.88,6,1,0,4
3955.88,4,1,0,1
3955.89,2,-1,-3,0
3955.89,2,-1,-5,-1
3955.89,5,4,0,1
3955.89,7,9,7,4
3955.89,8,12,9,3
3955.89,4,10,8,1
3955.89,3,9,5,-1
3955.89,0,8,5,-2
3955.89,0,8,8,-1
3955.89,-3,3,3,-4
3955.89,-5,0,1,-3
3955.89,-4,0,0,-2
3955.89,-3,-1,-2,-3
3955.89,-1,0,-3,-3
3955.89,0,1,0,1
3955.89,3,5,5,5
3955.89,6,6,7,8
3955.9,7,6,5,6
3955.9,6,4,3,3
3955.9,4,2,0,0
3955.9,2,0,-2,0
3955.9,3,3,0,2
3955.9,6,6,6,6
3955.9,7,7,9,8
3955.9,5,4,6,7
3955.9,3,1,2,3
3955.9,0,0,3,4
3955.9,1,-1,0,2
3955.9,-1,-6,-2,2
3955.9,0,-6,-4,3
3955.9,2,-4,-3,4
3955.9,4,-2,-1,6
3955.9,7,1,1,6
3955.9,9,3,2,7
3955.9,8,6,3,5
3955.91,8,7,5,4
3955.91,7,7,5,4
3955.91,5,6,4,2
3955.91,4,7,4,0
3955.91,1,6,4,0
3955.91,0,6,5,-1
3955.91,0,5,3,-3
3955.91,-1,5,3,-4
3955.91,-3,4,2,-5
3955.91,-3,2,1,-4
3955.91,-2,3,1,-3
3955.91,-1,2,0,-2
3955.91,0,2,0,0
3955.91,3,4,4,3
3955.91,5,7,7,6
3955.91,7,8,8,7
3955.91,6,5,4,3
3955.92,4,3,1,2
3955.92,3,1,0,1
3955.92,1,0,0,1
3955.92,2,2,1,2
3955.92,3,2,2,3
3955.92,3,3,2,2
3955.92,3,2,0,2
3955.92,3,1,0,1
3955.92,4,4,1,2
3955.92,5,5,4,5
3955.92,5,1,0,3
3955.92,2,-4,-6,1
3955.92,4,-2,-2,4
3955.92,7,1,2,8
3955.92,8,2,2,8
3955.92,7,3,5,8
3955.92,6,4,7,9
3955.92,5,2,5,5
3955.93,3,0,0,0
3955.93,0,0,-3,-2
3955.93,1,0,-4,-4
3955.93,4,6,0,-2
3955.93,6,12,9,3
3955.93,7,16,15,6
3955.93,4,12,14,5
3955.93,1,6,5,-3
3955.93,-4,1,0,-7
3955.93,-6,0,-2,-8
3955.93,-6,-1,-2,-6
3955.93,-5,0,0,-1
3955.93,0,1,3,3
3955.93,4,5,5,5
3955.93,5,5,4,4
3955.93,5,4,4,4
3955.93,4,2,2,3
3955.94,4,4,4,5
3955.94,5,5,3,3
3955.94,3,2,2,3
3955.94,2,0,0,2
3955.94,2,1,1,3
3955.94,3,2,3,4
3955.94,4,3,3,4
3955.94,5,2,1,1
3955.94,2,0,-1,0
3955.94,0,-1,-2,0
3955.94,0,-2,-3,2
3955.94,3,-2,-2,4
3955.94,8,1,0,7
3955.94,9,4,2,9
3955.94,11,5,5,10
3955.94,11,6,6,10
3955.94,10,6,6,7
3955.94,8,5,4,4
3955.95,3,1,1,0
3955.95,0,1,0,-1
3955.95,0,1,0,-1
3955.95,0,3,0,-3
3955.95,0,5,0,-4
3955.95,0,7,1,-5
3955.95,0,7,2,-5
3955.95,0,9,4,-2
3955.95,2,8,4,-2
3955.95,1,8,4,-2
3955.95,1,6,5,0
3955.95,0,4,7,4
3955.95,2,6,11,8
3955.95,2,3,10,8
3955.95,0,0,5,4
3955.95,-1,-3,0,1
3955.95,-1,-2,0,0
3955.96,-1,-2,-1,0
3955.96,0,-1,-2,0
3955.96,2,1,0,2
3955.96,4,4,3,4
3955.96,6,5,3,4
3955.96,6,4,2,3
3955.96,5,4,1,4
3955.96,6,5,2,3
3955.96,6,5,3,4
3955.96,5,4,2,4
3955.96,2,-1,-2,3
3955.96,2,-4,-4,4
3955.96,6,-2,-4,3
3955.96,7,0,-1,5
3955.96,8,4,1,7
3955.96,9,4,3,6
3955.96,8,5,4,6
3955.96,7,6,4,4
3955.97,5,5,4,2
3955.97,2,3,0,-1
3955.97,1,5,4,0
3955.97,1,7,8,2
3955.97,0,6,5,-1
3955.97,-1,5,2,-4
3955.97,-3,4,2,-5
3955.97,-3,3,1,-5
3955.97,-3,3,1,-4
3955.97,-2,3,1,-3
3955.97,0,5,4,0
3955.97,1,5,5,2
3955.97,2,4,4,3
3955.97,3,3,5,5
3955.97,4,3,5,5
3955.97,4,4,6,6
3955.97,3,2,5,5
3955.98,2,1,3,4
3955.98,1,0,0,2
3955.98,1,0,0,2
3955.98,3,0,-1,0
3955.98,2,1,-2,0
3955.98,3,2,0,1
3955.98,5,4,2,3
3955.98,5,4,2,3
3955.98,6,4,1,2
3955.98,5,2,0,2
3955.98,4,0,-2,3
3955.98,5,0,0,6
3955.98,7,2,4,9
3955.98,7,2,3,8
3955.98,8,3,4,7
3955.98,6,1,1,4
3955.98,4,1,0,1
3955.99,2,0,-1,0
3955.99,2,3,2,3
3955.99,4,7,6,4
3955.99,5,8,8,3
3955.99,3,8,7,1
3955.99,0,7,8,0
3955.99,-2,4,5,-2
3955.99,-5,0,0,-4
3955.99,-5,-1,-2,-6
3955.99,-3,1,-1,-6
3955.99,0,4,-1,-5
3955.99,0,4,-2,-4
3955.99,4,9,2,0
3955.99,8,11,5,3
3955.99,7,10,6,4
3955.99,7,7,6,5
3955.99,7,7,6,5
3955.99,6,6,7,7
3956,4,3,4,5
3956,1,0,0,0
3956,0,-1,-1,0
3956,1,0,0,2
3956,3,2,3,4
3956,3,3,5,5
3956,3,2,3,5
3956,2,0,0,1
3956,0,-1,-2,0
3956,0,-2,-1,3
3956,1,-3,-2,4
3956,4,-2,-2,4
3956,6,2,1,8
3956,9,3,2,8
3956,10,4,1,5
3956,8,4,1,3
3956,7,6,4,5
3956.01,8,8,6,5
3956.01,5,6,4,2
3956.01,3,3,0,-1
3956.01,1,3,0,-3
3956.01,0,5,1,-1
3956.01,1,7,4,-2
3956.01,0,7,4,-2
3956.01,0,8,7,-1
3956.01,0,5,6,-1
3956.01,-1,5,5,-1
3956.01,-2,3,6,0
3956.01,-3,0,3,0
3956.01,-1,0,1,0
3956.01,0,-1,-2,-1
3956.01,0,0,-1,0
3956.01,2,2,1,4
3956.01,7,6,5,6
3956.01,8,7,6,7
3956.02,8,7,6,7
3956.02,7,6,6,6
3956.02,4,4,4,4
3956.02,3,1,3,3
3956.02,1,0,0,1
3956.02,1,-1,-1,0
3956.02,1,0,-1,0
3956.02,2,1,0,0
3956.02,1,-1,-2,0
3956.02,1,-3,-4,1
3956.02,5,0,-1,5
3956.02,8,4,4,10
3956.02,9,3,5,10
3956.02,8,0,0,6
3956.02,8,2,0,5
3956.02,8,4,1,4
3956.02,8,6,2,1
3956.03,5,5,2,1
3956.03,3,6,5,2
3956.03,5,8,7,3
3956.03,4,8,6,0
3956.03,0,4,3,-4
3956.03,-4,2,2,-3
3956.03,-4,4,5,-1
3956.03,-1,6,8,1
3956.03,-1,5,6,0
3956.03,-2,2,1,-4
3956.03,-3,0,-1,-4
3956.03,-2,0,0,0
3956.03,0,3,2,3
3956.03,3,3,1,2
3956.03,4,4,0,2
3956.03,5,5,2,4
3956.03,6,5,4,5
3956.03,5,4,3,4
3956.04,6,4,4,5
3956.04,6,5,4,6
3956.04,6,4,3,2
3956.04,3,1,0,0
3956.04,1,0,-1,1
3956.04,3,2,1,2
3956.04,4,3,3,4
3956.04,4,3,3,4
3956.04,2,0,0,3
3956.04,1,-2,-1,3
3956.04,2,-2,-2,4
3956.04,5,0,-1,5
3956.04,5,0,0,5
3956.04,8,2,-2,3
3956.04,8,4,-1,3
3956.04,8,8,6,7
3956.04,9,9,8,7
3956.05,6,6,7,5
3956.05,3,5,7,5
3956.05,2,5,8,3
3956.05,0,4,5,0
3956.05,-2,2,2,-4
3956.05,-4,2,0,-7
3956.05,-4,4,1,-6
3956.05,-4,4,1,-6
3956.05,-3,2,0,-6
3956.05,-2,2,-1,-5
3956.05,0,4,0,-1
3956.05,3,5,2,2
3956.05,6,7,4,3
3956.05,6,7,6,5
3956.05,7,7,6,7
3956.05,7,6,5,6
3956.05,6,5,5,4
3956.06,4,2,3,4
3956.06,2,1,1,2
3956.06,2,1,3,4
3956.06,3,3,4,5
3956.06,3,1,1,2
3956.06,2,0,-1,0
3956.06,1,0,-2,0
3956.06,1,1,0,1
3956.06,4,3,1,3
3956.06,4,2,0,4
3956.06,4,0,0,5
3956.06,5,0,0,5
3956.06,6,0,1,7
3956.06,6,0,0,6
3956.06,7,1,1,6
3956.06,7,3,2,6
3956.06,7,5,3,4
3956.06,5,5,3,3
3956.07,4,5,4,2
3956.07,3,4,3,1
3956.07,3,7,5,0
3956.07,0,6,4,-1
3956.07,0,6,4,-2
3956.07,-1,7,6,-2
3956.07,0,6,6,-2
3956.07,-1,4,2,-3
3956.07,-2,3,0,-4
3956.07,-2,3,1,-3
3956.07,-2,1,2,0
3956.07,0,3,5,4
3956.07,2,4,5,4
3956.07,3,2,2,2
3956.07,2,3,3,3
3956.07,3,3,3,4
3956.07,3,2,4,5
3956.08,4,1,2,4
3956.08,4,2,2,4
3956.08,5,3,1,3
3956.08,3,2,1,2
3956.08,4,2,0,0
3956.08,3,2,-1,0
3956.08,4,4,0,1
3956.08,5,6,2,3
3956.08,4,2,0,4
3956.08,3,-2,-3,3
3956.08,3,-4,-5,5
3956.08,8,1,0,8
3956.08,10,4,5,11
3956.08,9,2,4,10
3956.08,8,4,3,6
3956.08,6,3,3,4
3956.08,4,3,2,0
3956.09,1,3,0,-1
3956.09,1,3,1,-1
3956.09,0,3,1,-1
3956.09,2,6,3,-1
3956.09,2,8,5,0
3956.09,1,7,4,-3
3956.09,0,7,3,-3
3956.09,0,8,5,-1
3956.09,0,7,5,0
3956.09,0,4,2,-3
3956.09,-3,2,1,-2
3956.09,-2,0,0,0
3956.09,0,2,3,2
3956.09,2,5,7,7
3956.09,4,4,7,7
3956.09,2,1,4,4
3956.09,0,0,2,3
3956.09,1,1,4,5
3956.1,1,0,0,2
3956.1,2,0,-1,1
3956.1,2,0,-2,0
3956.1,5,3,0,2
3956.1,7,6,0,2
3956.1,8,6,1,3
3956.1,8,9,6,6
3956.1,8,8,8,8
3956.1,6,4,4,5
3956.1,2,-1,0,3
3956.1,1,-4,-3,2
3956.1,2,-3,-3,2
3956.1,3,-1,-1,4
3956.1,5,1,0,4
3956.1,6,3,2,4
3956.1,5,3,1,3
3956.1,5,4,3,4
3956.1,4,4,3,3
3956.11,3,2,2,2
3956.11,3,2,0,0
3956.11,4,7,3,0
3956.11,4,10,7,0
3956.11,3,9,5,-2
3956.11,0,6,2,-3
3956.11,-1,6,2,-4
3956.11,-1,7,6,0
3956.11,-1,5,6,0
3956.11,-2,2,4,0
3956.11,-2,1,4,3
3956.11,0,0,2,1
3956.11,0,-1,-3,-1
3956.11,0,0,-2,-1
3956.11,2,2,1,2
3956.11,5,5,3,4
3956.11,7,7,5,6
3956.12,8,6,3,4
3956.12,7,3,0,0
3956.12,4,3,1,3
3956.12,4,4,3,5
3956.12,5,5,4,4
3956.12,4,4,5,5
3956.12,1,1,4,4
3956.12,1,0,2,4
3956.12,1,-1,0,3
3956.12,2,-2,0,4
3956.12,3,-3,-1,4
3956.12,4,-1,0,4
3956.12,3,-2,0,5
3956.12,6,1,1,6
3956.12,8,3,2,5
3956.12,7,6,5,6
3956.12,7,6,5,4
3956.13,4,4,3,2
3956.13,2,3,2,0
3956.13,1,5,3,-1
3956.13,0,5,2,-3
3956.13,0,5,0,-6
3956.13,0,7,1,-5
3956.13,1,9,4,-2
3956.13,1,9,5,-1
3956.13,0,7,4,-1
3956.13,0,5,5,1
3956.13,0,2,2,1
3956.13,0,2,3,2
3956.13,2,3,5,3
3956.13,1,2,4,4
3956.13,2,0,1,3
3956.13,2,0,-1,0
3956.13,2,2,-1,0
3956.14,3,2,0,1
3956.14,4,3,2,5
3956.14,7,8,8,9
3956.14,8,8,10,9
3956.14,6,3,5,4
3956.14,1,-2,-2,0
3956.14,0,-2,-2,-1
3956.14,1,0,-2,0
3956.14,2,0,-2,0
3956.14,4,0,-4,0
3956.14,5,0,-6,1
3956.14,7,1,-5,3
3956.14,11,6,5,10
3956.14,12,8,11,15
3956.14,13,8,12,14
3956.14,9,4,7,9
3956.14,3,0,2,2
3956.14,0,-2,-1,-1
3956.15,-2,-1,0,-2
3956.15,-1,0,0,-1
3956.15,0,4,2,0
3956.15,1,6,3,-2
3956.15,0,8,4,-2
3956.15,0,7,4,-3
3956.15,0,8,6,-1
3956.15,1,8,6,-1
3956.15,0,6,5,0
3956.15,0,4,3,-2
3956.15,-1,2,1,-1
3956.15,-1,1,1,1
3956.15,1,1,2,1
3956.15,1,1,2,2
3956.15,4,3,2,4
3956.15,5,4,3,4
3956.15,5,4,3,4
3956.16,4,3,2,3
3956.16,4,3,2,4
3956.16,5,3,2,3
3956.16,3,0,0,2
3956.16,3,1,0,3
3956.16,5,4,3,5
3956.16,6,5,3,4
3956.16,6,5,3,3
3956.16,4,3,1,2
3956.16,1,-1,-2,3
3956.16,3,-2,-1,4
3956.16,4,-2,-1,5
3956.16,5,0,0,5
3956.16,6,1,0,5
3956.16,7,2,1,5
3956.16,6,3,2,5
3956.16,6,4,3,4
3956.16,5,5,4,2
3956.17,3,4,2,0
3956.17,3,4,2,0
3956.17,2,5,0,-2
3956.17,1,7,3,-2
3956.17,3,9,6,-1
3956.17,1,10,6,-1
3956.17,1,9,6,-1
3956.17,-1,7,7,-1
3956.17,-1,5,8,1
3956.17,-3,2,7,2
3956.17,-4,-3,2,1
3956.17,-3,-5,-2,-1
3956.17,-1,-1,0,1
3956.17,1,0,2,3
3956.17,2,0,0,1
3956.17,4,2,0,2
3956.17,6,6,6,7
3956.18,7,6,4,5
3956.18,5,2,0,1
3956.18,4,3,0,2
3956.18,5,5,4,6
3956.18,7,5,3,5
3956.18,6,3,0,1
3956.18,4,2,-2,0
3956.18,4,1,-5,-3
3956.18,3,1,-2,0
3956.18,5,0,-1,5
3956.18,6,1,2,9
3956.18,9,4,5,11
3956.18,10,4,3,9
3956.18,7,3,2,5
3956.18,5,1,0,2
3956.18,3,1,0,0
3956.18,3,4,2,2
3956.18,4,6,6,3
3956.19,2,5,7,3
3956.19,1,4,3,0
3956.19,0,2,0,-4
3956.19,-1,3,0,-5
3956.19,-1,5,2,-3
3956.19,0,6,4,-3
3956.19,0,8,5,-1
3956.19,1,7,5,0
3956.19,0,8,10,4
3956.19,0,4,8,4
3956.19,-1,1,6,4
3956.19,-1,0,5,3
3956.19,-1,-1,2,1
3956.19,-2,-3,-2,-2
3956.19,-2,-4,-5,-2
3956.19,1,0,-2,0
3956.19,4,4,2,4
3956.2,9,7,5,6
3956.2,8,7,6,7
3956.2,9,6,3,5
3956.2,8,5,2,3
3956.2,6,5,1,1
3956.2,4,4,2,2
3956.2,4,4,2,2
3956.2,3,3,1,2
3956.2,1,0,0,3
3956.2,2,-2,1,6
3956.2,4,-1,1,6
3956.2,3,-1,0,4
3956.2,2,-3,-3,3
3956.2,4,0,-1,4
3956.2,7,3,1,5
3956.2,8,6,4,5
3956.2,7,6,4,4
3956.21,6,6,4,3
3956.21,4,7,4,1
3956.21,4,7,4,0
3956.21,1,6,4,-1
3956.21,0,6,4,-2
3956.21,0,6,3,-4
3956.21,0,6,3,-5
3956.21,-2,4,2,-5
3956.21,-2,3,1,-3
3956.21,-2,3,2,-1
3956.21,0,2,4,1
3956.21,2,3,3,3
3956.21,2,2,3,2
3956.21,1,0,0,1
3956.21,0,0,2,3
3956.21,2,2,5,7
3956.21,5,4,5,7
3956.21,6,4,4,5
3956.22,5,3,2,4
3956.22,5,3,2,4
3956.22,6,4,2,4
3956.22,5,4,1,2
3956.22,4,3,0,1
3956.22,3,2,0,0
3956.22,3,2,0,2
3956.22,3,2,0,3
3956.22,2,-1,-1,2
3956.22,3,-1,0,5
3956.22,5,0,0,6
3956.22,6,0,0,7
3956.22,6,0,1,7
3956.22,7,3,2,6
3956.22,6,4,3,6
3956.22,6,4,4,4
3956.22,4,4,3,3
3956.23,3,4,4,1
3956.23,2,4,4,1
3956.23,1,4,3,-1
3956.23,-1,4,4,-1
3956.23,-1,6,4,-2
3956.23,-1,4,1,-6
3956.23,-2,5,4,-2
3956.23,0,7,6,0
3956.23,0,7,7,1
3956.23,0,3,4,0
3956.23,0,0,2,0
3956.23,0,0,0,-1
3956.23,0,1,0,0
3956.23,3,3,0,1
3956.23,4,4,2,4
3956.23,7,7,4,6
3956.23,8,5,3,4
3956.23,5,4,1,2
3956.24,4,2,0,0
3956.24,4,3,0,0
3956.24,6,3,0,2
3956.24,6,4,0,1
3956.24,6,5,2,4
3956.24,7,5,0,2
3956.24,7,5,2,3
3956.24,6,4,5,6
3956.24,3,0,3,7
3956.24,3,-1,2,7
3956.24,4,-1,3,8
3956.24,2,-3,1,5
3956.24,1,-4,0,4
3956.24,3,0,1,5
3956.24,2,0,1,3
3956.24,3,2,2,2
3956.24,3,3,2,1
3956.25,2,3,3,1
3956.25,3,6,4,0
3956.25,2,8,5,0
3956.25,2,8,5,-1
3956.25,0,8,4,-2
3956.25,0,7,4,-2
3956.25,-1,6,4,-3
3956.25,-1,5,3,-2
3956.25,0,4,2,-1
3956.25,0,3,2,0
3956.25,0,2,2,1
3956.25,1,3,3,2
3956.25,2,3,2,3
3956.25,3,2,2,3
3956.25,4,3,3,4
3956.25,5,3,3,4
3956.25,4,3,3,4
3956.25,5,2,2,3
3956.26,4,3,3,4
3956.26,4,3,1,2
3956.26,4,3,0,1
3956.26,3,1,0,1
3956.26,3,2,0,2
3956.26,4,4,2,4
3956.26,4,4,4,4
3956.26,4,2,2,4
3956.26,2,-2,0,4
3956.26,3,-2,-2,4
3956.26,4,-1,0,5
3956.26,5,0,2,8
3956.26,7,2,4,8
3956.26,6,1,0,4
3956.26,5,1,1,3
3956.26,5,4,4,3
3956.26,3,4,4,3
3956.27,1,2,1,0
3956.27,2,5,2,-1
3956.27,3,6,2,-1
3956.27,2,7,3,-3
3956.27,1,7,3,-4
3956.27,0,7,1,-5
3956.27,0,6,0,-5
3956.27,1,8,3,-3
3956.27,2,8,3,-1
3956.27,1,5,4,0
3956.27,1,5,5,3
3956.27,3,6,8,6
3956.27,4,4,7,6
3956.27,2,1,3,3
3956.27,1,0,1,2
3956.27,0,0,2,3
3956.27,1,1,4,5
3956.28,2,1,4,5
3956.28,2,0,2,3
3956.28,0,-1,0,2
3956.28,1,0,0,2
3956.28,3,0,-2,0
3956.28,4,1,-4,0
3956.28,5,3,-2,0
3956.28,6,4,0,2
3956.28,7,3,0,4
3956.28,8,4,1,6
3956.28,10,5,4,9
3956.28,9,2,1,6
3956.28,6,0,0,5
3956.28,7,2,2,6
3956.28,7,4,3,6
3956.28,6,5,4,4
3956.28,3,5,9,6
3956.28,2,3,7,5
3956.29,0,0,4,0
3956.29,-1,2,1,-2
3956.29,-3,2,1,-4
3956.29,-2,3,1,-6
3956.29,-3,3,1,-6
3956.29,-1,6,4,-3
3956.29,-1,6,5,-1
3956.29,0,6,5,0
3956.29,1,7,6,2
3956.29,1,4,6,2
3956.29,0,0,2,2
3956.29,1,0,0,2
3956.29,2,2,3,4
3956.29,4,3,3,4
3956.29,3,2,3,4
3956.29,4,3,3,4
3956.29,4,2,0,2
3956.3,3,2,0,1
3956.3,4,3,1,2
3956.3,7,5,3,3
3956.3,6,5,2,3
3956.3,5,5,3,3
3956.3,4,3,1,1
3956.3,3,1,-1,0
3956.3,3,1,0,3
3956.3,3,-1,0,5
3956.3,3,-2,0,7
3956.3,5,-4,-2,5
3956.3,5,-3,-3,5
3956.3,7,2,1,6
3956.3,9,6,5,7
3956.3,8,6,6,7
3956.3,7,5,2,2
3956.3,3,3,0,-1
3956.31,2,4,0,-1
3956.31,3,6,5,0
3956.31,3,8,5,0
3956.31,3,9,7,0
3956.31,1,9,7,0
3956.31,-1,6,5,-2
3956.31,-3,5,5,-2
3956.31,-4,3,4,-2
3956.31,-3,2,4,-1
3956.31,-3,1,2,0
3956.31,-2,-1,0,-1
3956.31,-1,0,-2,-2
3956.31,-1,0,0,0
3956.31,2,4,3,4
3956.31,6,5,5,6
3956.31,7,4,2,4
3956.31,7,3,0,2
3956.31,6,5,2,3
3956.32,7,6,4,5
3956.32,6,6,4,5
3956.32,6,4,3,4
3956.32,4,3,2,2
3956.32,2,1,0,1
3956.32,2,1,1,2
3956.32,3,2,1,2
3956.32,3,1,0,3
3956.32,3,-1,-1,3
3956.32,3,-1,0,4
3956.32,4,-1,0,5
3956.32,5,0,1,6
3956.32,6,3,3,7
3956.32,7,3,3,6
3956.32,6,4,3,3
3956.32,4,3,2,2
3956.32,3,4,4,1
3956.32,2,4,3,1
3956.33,3,6,4,0
3956.33,2,5,3,-2
3956.33,0,5,2,-2
3956.33,0,6,5,0
3956.33,0,7,6,0
3956.33,0,6,4,-1
3956.33,0,4,2,-1
3956.33,-2,3,2,-2
3956.33,-2,1,1,0
3956.33,0,2,2,1
3956.33,2,2,3,3
3956.33,2,3,2,2
3956.33,3,3,2,3
3956.33,3,2,2,2
3956.33,3,3,1,2
3956.33,5,3,0,2
3956.33,5,4,1,3
3956.34,6,4,3,4
3956.34,6,5,4,6
3956.34,6,4,3,5
3956.34,6,3,1,2
3956.34,5,3,1,2
3956.34,4,3,2,3
3956.34,2,2,3,3
3956.34,1,-1,0,4
3956.34,1,-3,-1,4
3956.34,2,-2,0,5
3956.34,3,-2,-1,4
3956.34,3,-3,-2,3
3956.34,5,0,0,4
3956.34,6,3,2,5
3956.34,7,5,3,4
3956.34,5,5,4,4
3956.34,5,6,5,4
3956.35,5,7,6,4
3956.35,6,8,7,2
3956.35,3,6,3,-2
3956.35,0,5,0,-6
3956.35,-1,6,1,-5
3956.35,0,7,3,-3
3956.35,0,8,6,0
3956.35,0,6,5,0
3956.35,0,5,5,0
3956.35,-1,2,5,0
3956.35,-2,0,3,1
3956.35,-1,0,3,3
3956.35,0,0,2,2
3956.35,1,0,1,1
3956.35,2,0,-1,0
3956.35,2,0,-2,-1
3956.35,3,1,-4,-1
3956.35,5,3,-3,1
3956.36,10,8,0,3
3956.36,12,10,5,7
3956.36,11,10,8,9
3956.36,9,9,10,9
3956.36,7,7,9,8
3956.36,6,5,8,7
3956.36,1,-1,0,0
3956.36,-3,-7,-4,0
3956.36,-4,-7,-3,2
3956.36,0,-5,-2,4
3956.36,1,-5,-3,4
3956.36,4,-3,-5,2
3956.36,5,1,-2,1
3956.36,8,5,2,4
3956.36,9,7,4,4
3956.36,8,7,4,4
3956.36,8,8,5,4
3956.37,7,10,7,4
3956.37,5,9,6,1
3956.37,2,8,6,0
3956.37,0,7,6,-1
3956.37,-1,5,3,-3
3956.37,-2,5,2,-5
3956.37,-5,2,0,-7
3956.37,-5,1,-1,-6
3956.37,-1,3,3,0
3956.37,1,6,8,5
3956.37,3,5,7,4
3956.37,1,2,5,4
3956.37,0,0,0,1
3956.37,0,0,0,1
3956.37,1,1,1,2
3956.37,3,2,1,3
3956.37,4,2,2,3
3956.38,5,3,2,4
3956.38,6,4,3,4
3956.38,6,5,4,5
3956.38,5,5,4,5
3956.38,5,3,3,3
3956.38,4,2,2,3
3956.38,4,2,2,3
3956.38,2,0,0,1
3956.38,0,-5,-4,1
3956.38,1,-3,-4,2
3956.38,5,0,0,5
3956.38,5,0,2,9
3956.38,9,3,0,6
3956.38,8,2,-1,2
3956.38,7,5,0,2
3956.38,8,10,8,7
3956.38,7,7,6,5
3956.38,4,3,0,-1
3956.39,3,6,1,-2
3956.39,2,7,2,-2
3956.39,1,9,5,-1
3956.39,0,8,8,0
3956.39,-1,7,6,0
3956.39,-1,6,5,-3
3956.39,-3,3,2,-4
3956.39,-5,0,0,-5
3956.39,-5,-1,0,-2
3956.39,-2,0,2,1
3956.39,2,3,5,6
3956.39,5,6,7,7
3956.39,4,3,6,6
3956.39,3,1,4,6
3956.39,3,1,4,6
3956.39,3,2,3,5
3956.39,3,0,0,0
3956.4,1,-1,-5,-2
3956.4,1,-1,-6,-2
3956.4,3,2,-1,1
3956.4,8,8,4,5
3956.4,10,8,3,4
3956.4,7,6,3,4
3956.4,6,5,2,3
3956.4,5,3,1,4
3956.4,5,0,0,4
3956.4,5,0,-2,4
3956.4,5,-1,-2,3
3956.4,5,-1,-3,4
3956.4,8,3,2,7
3956.4,8,6,6,8
3956.4,8,7,8,7
3956.4,5,5,5,4
3956.4,2,4,4,1
3956.4,1,4,6,1
3956.41,0,5,4,-1
3956.41,-2,2,0,-4
3956.41,-3,3,0,-6
3956.41,-4,3,0,-6
3956.41,-2,6,4,-3
3956.41,-1,6,5,0
3956.41,0,7,6,1
3956.41,1,7,6,1
3956.41,0,3,3,0
3956.41,1,3,3,0
3956.41,0,2,2,1
3956.41,2,3,3,2
3956.41,2,2,3,3
3956.41,4,2,2,3
3956.41,3,0,0,3
3956.41,3,-1,-1,2
3956.41,4,1,0,4
3956.42,7,4,3,6
3956.42,9,7,5,6
3956.42,7,4,2,2
3956.42,4,3,1,2
3956.42,3,2,1,2
3956.42,4,3,2,3
3956.42,4,3,1,2
3956.42,1,-1,0,2
3956.42,2,-2,-1,4
3956.42,4,-1,0,5
3956.42,6,1,1,7
3956.42,7,0,1,7
3956.42,7,3,3,7
3956.42,6,3,4,5
3956.42,6,5,5,4
3956.42,5,5,3,2
3956.42,2,3,0,-1
3956.43,0,2,0,-2
3956.43,1,4,0,-4
3956.43,0,4,-2,-6
3956.43,0,7,2,-4
3956.43,2,9,4,0
3956.43,3,11,7,0
3956.43,1,9,6,0
3956.43,0,7,7,1
3956.43,0,6,8,3
3956.43,-1,1,5,2
3956.43,-1,0,1,0
3956.43,-1,-1,0,0
3956.43,0,-1,0,1
3956.43,2,0,-2,0
3956.43,2,3,0,2
3956.43,5,5,5,6
3956.43,6,6,9,9
3956.43,6,4,6,6
3956.44,4,2,2,3
3956.44,2,0,-1,0
3956.44,2,1,-1,0
3956.44,2,1,0,1
3956.44,3,3,2,2
3956.44,5,4,2,3
3956.44,4,3,1,3
3956.44,3,-1,-1,3
3956.44,4,-1,-1,4
3956.44,5,0,1,6
3956.44,5,1,2,7
3956.44,6,2,1,6
3956.44,6,2,1,6
3956.44,6,2,0,2
3956.44,4,2,0,2
3956.44,4,4,2,2
3956.44,4,5,3,2
3956.45,5,6,3,0
3956.45,4,7,4,0
3956.45,2,8,4,-3
3956.45,0,7,4,-2
3956.45,0,8,5,0
3956.45,1,8,6,-1
3956.45,0,8,8,0
3956.45,-3,2,1,-3
3956.45,-4,0,3,0
3956.45,-2,1,7,4
3956.45,0,0,4,3
3956.45,-1,0,2,2
3956.45,-1,-1,1,3
3956.45,0,0,2,3
3956.45,1,2,3,4
3956.45,4,3,3,4
3956.45,4,2,1,2
3956.45,3,3,0,1
3956.46,5,4,1,3
3956.46,6,4,2,4
3956.46,5,4,3,4
3956.46,6,3,0,3
3956.46,5,2,-1,0
3956.46,5,2,-2,-1
3956.46,4,3,-1,1
3956.46,5,0,-2,2
3956.46,6,1,-1,5
3956.46,9,3,1,7
3956.46,9,3,2,8
3956.46,9,3,2,6
3956.46,7,3,3,6
3956.46,7,5,6,6
3956.46,5,5,5,4
3956.46,3,3,1,0
3956.46,0,1,0,-1
3956.47,0,2,1,-1
3956.47,0,4,3,-1
3956.47,1,7,5,-1
3956.47,0,7,5,-2
3956.47,-1,6,4,-3
3956.47,-1,5,4,-3
3956.47,-2,5,4,-1
3956.47,0,5,5,0
3956.47,0,2,3,0
3956.47,0,1,0,0
3956.47,0,0,1,2
3956.47,2,2,2,3
3956.47,4,3,3,3
3956.47,5,4,3,4
3956.47,5,3,1,2
3956.47,4,3,2,3
3956.47,5,4,3,4
3956.47,4,3,2,4
3956.48,5,4,2,4
3956.48,5,3,2,3
3956.48,4,3,2,3
3956.48,3,2,2,3
3956.48,2,2,3,4
3956.48,2,1,2,3
3956.48,1,-2,0,2
3956.48,1,-3,-2,4
3956.48,3,-3,-3,4
3956.48,4,-1,0,5
3956.48,6,0,2,8
3956.48,8,3,2,7
3956.48,8,4,2,5
3956.48,7,5,2,3
3956.48,6,5,2,2
3956.48,4,5,3,1
3956.48,3,5,3,1
3956.49,4,8,5,0
3956.49,1,7,5,-1
3956.49,0,7,6,-1
3956.49,-1,6,6,-1
3956.49,0,6,6,-1
3956.49,-2,4,4,-3
3956.49,-3,1,1,-4
3956.49,-4,0,1,-4
3956.49,-3,0,0,-1
3956.49,0,1,1,1
3956.49,2,3,2,1
3956.49,3,3,0,1
3956.49,4,4,3,4
3956.49,6,7,7,7
3956.49,8,9,10,8
3956.49,6,5,5,5
3956.49,5,3,1,2
3956.5,2,0,-1,-1
3956.5,2,0,-2,0
3956.5,2,0,-1,0
3956.5,3,2,0,4
3956.5,6,4,3,5
3956.5,6,4,3,4
3956.5,4,0,-1,1
3956.5,1,-3,-4,2
3956.5,3,-1,-1,6
3956.5,5,1,1,7
3956.5,6,0,0,6
3956.5,6,0,0,5
3956.5,8,3,1,5
3956.5,8,5,2,4
3956.5,7,7,5,5
3956.5,7,7,5,4
3956.5,5,6,4,1
3956.5,4,6,3,0
3956.51,2,6,3,-1
3956.51,0,5,4,-1
3956.51,0,9,10,2
3956.51,0,8,11,1
3956.51,-3,3,5,-3
3956.51,-6,0,2,-4
3956.51,-6,0,0,-5
3956.51,-7,0,2,-1
3956.51,-4,0,2,1
3956.51,0,0,0,0
3956.51,0,0,0,0
3956.51,3,2,0,2
3956.51,6,4,2,5
3956.51,9,5,0,2
3956.51,8,5,0,2
3956.51,8,7,1,3
3956.51,8,10,8,9
3956.52,11,11,12,13
3956.52,9,6,6,6
3956.52,4,3,2,2
3956.52,1,1,0,-1
3956.52,0,-1,-4,-4
3956.52,-2,-2,-4,-2
3956.52,0,-1,-1,1
3956.52,2,-1,-1,5
3956.52,6,2,2,8
3956.52,7,1,2,6
3956.52,4,-2,-2,5
3956.52,5,0,0,6
3956.52,7,4,4,8
3956.52,9,6,6,7
3956.52,6,5,5,5
3956.52,4,3,2,1
3956.52,1,2,1,0
3956.52,2,5,0,-2
3956.53,2,8,4,-2
3956.53,1,9,5,-2
3956.53,0,8,6,-1
3956.53,-1,6,5,-2
3956.53,-2,4,4,-1
3956.53,-1,1,0,-5
3956.53,-3,0,0,-3
3956.53,-2,0,2,2
3956.53,2,3,7,7
3956.53,4,5,6,6
3956.53,5,3,3,3
3956.53,3,1,0,0
3956.53,1,0,-3,-1
3956.53,2,0,-5,-2
3956.53,5,3,-3,0
3956.53,7,7,2,3
3956.53,10,10,7,7
3956.54,9,11,12,10
3956.54,7,8,11,11
3956.54,5,3,8,7
3956.54,1,0,3,2
3956.54,-1,-2,1,0
3956.54,-3,-5,-4,-2
3956.54,-3,-7,-6,-2
3956.54,-2,-7,-7,0
3956.54,2,-2,-3,3
3956.54,8,0,-3,2
3956.54,8,3,0,5
3956.54,10,7,5,9
3956.54,11,9,9,12
3956.54,11,9,7,8
3956.54,8,6,5,4
3956.54,3,3,3,1
3956.54,2,3,0,-1
3956.54,1,5,3,-1
3956.55,0,5,2,-2
3956.55,0,6,3,-3
3956.55,-1,6,5,-2
3956.55,-1,5,3,-4
3956.55,-1,3,-1,-7
3956.55,-2,5,2,-2
3956.55,0,6,5,0
3956.55,1,4,4,1
3956.55,2,4,4,3
3956.55,2,3,5,5
3956.55,2,2,5,5
3956.55,2,2,4,4
3956.55,2,0,1,2
3956.55,3,1,0,1
3956.55,2,3,1,2
3956.55,3,3,3,4
3956.55,4,3,2,3
3956.56,4,3,2,4
3956.56,6,3,2,3
3956.56,5,3,1,2
3956.56,4,2,0,1
3956.56,4,3,0,1
3956.56,4,3,1,3
3956.56,3,0,0,3
3956.56,3,-1,0,4
3956.56,5,-1,-1,5
3956.56,5,0,0,6
3956.56,8,2,2,8
3956.56,8,2,2,7
3956.56,7,3,3,6
3956.56,6,4,3,4
3956.56,4,5,5,4
3956.56,4,4,4,2
3956.56,2,5,4,0
3956.57,1,4,3,-1
3956.57,0,4,2,-3
3956.57,-1,6,5,-2
3956.57,-1,6,4,-2
3956.57,-1,5,3,-3
3956.57,-2,4,2,-5
3956.57,-3,2,0,-5
3956.57,-2,2,0,-2
3956.57,0,3,2,1
3956.57,3,5,4,3
3956.57,4,4,1,2
3956.57,5,6,4,4
3956.57,6,7,7,7
3956.57,6,4,4,4
3956.57,3,3,5,5
3956.57,4,2,4,5
3956.57,3,1,0,1
3956.57,1,0,0,2
3956.58,2,1,2,3
3956.58,4,3,3,3
3956.58,3,1,0,2
3956.58,3,3,1,2
3956.58,4,4,3,3
3956.58,3,0,0,1
3956.58,0,-4,-5,1
3956.58,1,-3,-2,5
3956.58,6,0,2,8
3956.58,7,0,0,7
3956.58,7,1,1,7
3956.58,8,3,1,5
3956.58,7,4,2,3
3956.58,7,5,1,1
3956.58,5,4,0,-1
3956.58,3,5,2,1
3956.58,5,10,7,4
3956.59,5,10,9,3
3956.59,2,8,7,0
3956.59,0,6,6,-1
3956.59,-2,5,4,-3
3956.59,-4,3,4,-4
3956.59,-5,1,1,-5
3956.59,-5,0,-1,-6
3956.59,-3,0,-2,-3
3956.59,0,2,0,0
3956.59,3,5,4,2
3956.59,4,5,4,5
3956.59,5,4,4,6
3956.59,6,5,4,5
3956.59,5,5,3,4
3956.59,5,4,3,4
3956.59,3,3,5,5
3956.59,4,1,3,5
3956.59,2,1,3,5
3956.6,2,1,3,5
3956.6,2,1,2,2
3956.6,1,-1,-2,0
3956.6,1,0,-4,-2
3956.6,3,0,-4,-2
3956.6,4,1,-4,0
3956.6,6,1,-4,2
3956.6,9,5,2,8
3956.6,12,8,6,10
3956.6,11,5,4,9
3956.6,9,4,4,7
3956.6,6,2,2,5
3956.6,5,2,2,3
3956.6,4,4,2,1
3956.6,2,2,2,1
3956.6,0,2,2,0
3956.6,1,3,1,-2
3956.61,0,5,2,-2
3956.61,0,7,4,-2
3956.61,0,7,4,-2
3956.61,0,7,4,-2
3956.61,0,6,5,-2
3956.61,0,5,3,-1
3956.61,0,4,2,-1
3956.61,0,3,4,1
3956.61,1,3,4,2
3956.61,1,3,3,2
3956.61,0,1,1,2
3956.61,1,2,2,3
3956.61,3,3,4,4
3956.61,4,3,4,4
3956.61,4,2,2,2
3956.61,2,1,1,2
3956.61,2,1,3,3
3956.61,2,2,3,4
3956.62,2,0,1,3
3956.62,3,1,1,3
3956.62,4,3,2,4
3956.62,6,5,4,6
3956.62,5,5,5,5
3956.62,3,0,2,6
3956.62,2,-4,-5,1
3956.62,2,-4,-5,2
3956.62,5,0,0,6
3956.62,8,2,1,7
3956.62,8,4,1,5
3956.62,8,5,2,5
3956.62,8,6,1,2
3956.62,6,5,1,0
3956.62,4,4,1,0
3956.62,4,6,3,1
3956.62,5,8,5,1
3956.63,4,8,4,0
3956.63,1,7,5,-2
3956.63,-1,6,4,-2
3956.63,-2,4,4,-3
3956.63,-2,4,4,-2
3956.63,-2,3,2,-3
3956.63,-3,2,1,-2
3956.63,-3,0,0,0
3956.63,0,1,3,2
3956.63,3,3,3,4
3956.63,5,4,4,4
3956.63,4,4,3,3
3956.63,4,3,3,3
3956.63,4,2,2,3
3956.63,3,1,0,2
3956.63,4,4,4,5
3956.63,5,7,9,9
3956.64,5,2,4,4
3956.64,2,1,2,2
3956.64,1,0,-3,0
3956.64,1,0,-5,-3
3956.64,3,3,0,1
3956.64,5,5,4,5
3956.64,4,1,3,7
3956.64,6,1,3,8
3956.64,7,1,2,7
3956.64,4,-2,-1,3
3956.64,3,-2,-1,4
3956.64,4,0,0,4
3956.64,7,4,2,4
3956.64,6,5,1,2
3956.64,4,5,2,1
3956.64,2,3,2,1
3956.64,2,4,4,2
3956.64,3,5,3,1
3956.65,4,7,5,0
3956.65,2,7,4,-1
3956.65,0,6,3,-2
3956.65,0,5,3,-3
3956.65,0,6,0,-4
3956.65,0,4,-1,-6
3956.65,0,3,0,-3
3956.65,0,2,1,0
3956.65,1,5,4,3
3956.65,5,8,9,7
3956.65,7,8,9,7
3956.65,4,4,6,4
3956.65,2,1,3,3
3956.65,1,2,6,6
3956.65,1,0,2,3
3956.65,0,-3,-3,-1
3956.65,0,-2,-5,-2
3956.66,0,0,-2,0
3956.66,3,2,0,2
3956.66,6,5,4,5
3956.66,7,7,5,6
3956.66,7,9,8,8
3956.66,6,3,5,6
3956.66,1,-3,-2,3
3956.66,1,-5,-3,2
3956.66,3,-1,0,5
3956.66,4,-2,-1,5
3956.66,5,0,0,5
3956.66,5,1,1,5
3956.66,6,4,2,4
3956.66,7,6,3,2
3956.66,5,6,4,3
3956.66,5,6,4,1
3956.66,3,6,4,0
3956.67,3,7,3,-1
3956.67,2,8,4,-2
3956.67,0,8,7,-1
3956.67,0,7,6,-2
3956.67,-2,5,5,-2
3956.67,-4,3,4,-2
3956.67,-3,3,4,0
3956.67,-3,0,1,0
3956.67,-1,0,0,0
3956.67,0,0,-2,-2
3956.67,0,0,-1,0
3956.67,3,3,0,2
3956.67,6,5,2,4
3956.67,8,7,4,6
3956.67,9,9,5,6
3956.67,8,8,7,7
3956.67,6,6,6,6
3956.67,4,3,3,4
3956.68,3,1,0,1
3956.68,2,1,0,1
3956.68,1,0,-2,0
3956.68,1,1,2,3
3956.68,2,2,6,6
3956.68,2,0,3,5
3956.68,1,-3,-1,5
3956.68,1,-5,-2,3
3956.68,2,-2,-1,5
3956.68,4,-1,-1,5
3956.68,7,2,1,6
3956.68,8,3,0,3
3956.68,7,5,1,2
3956.68,5,5,1,0
3956.68,4,4,0,0
3956.68,5,7,3,1
3956.68,7,11,7,1
3956.69,5,10,6,0
3956.69,3,9,5,-2
3956.69,0,6,4,-2
3956.69,0,6,3,-3
3956.69,-1,4,1,-4
3956.69,-2,3,1,-2
3956.69,-1,2,1,-2
3956.69,-1,2,2,2
3956.69,2,4,3,3
3956.69,3,4,4,4
3956.69,3,3,3,3
3956.69,3,2,4,4
3956.69,3,3,5,5
3956.69,3,2,4,4
3956.69,3,1,1,2
3956.69,2,0,0,1
3956.69,3,1,0,2
3956.69,3,3,2,2
3956.7,4,3,2,3
3956.7,4,3,2,3
3956.7,4,2,0,1
3956.7,4,2,3,3
3956.7,4,3,4,5
3956.7,2,0,0,5
3956.7,3,-2,-1,4
3956.7,4,-1,-1,5
3956.7,4,0,-1,4
3956.7,5,0,0,4
3956.7,6,2,1,5
3956.7,7,4,2,5
3956.7,7,6,3,4
3956.7,5,5,3,2
3956.7,3,3,2,1
3956.7,4,6,3,0
3956.7,3,7,5,1
3956.71,3,9,8,0
3956.71,1,8,7,0
3956.71,0,4,3,-4
3956.71,-3,3,3,-4
3956.71,-2,3,3,-3
3956.71,-3,3,1,-3
3956.71,-1,2,1,-2
3956.71,-2,0,-1,-1
3956.71,0,0,0,0
3956.71,3,5,3,4
3956.71,5,5,3,4
3956.71,5,3,0,2
3956.71,7,7,5,6
3956.71,7,8,8,8
3956.71,6,6,6,6
3956.71,5,4,5,5
3956.71,4,2,3,3
3956.71,1,0,0,0
3956.72,0,0,0,0
3956.72,0,0,-1,0
3956.72,2,0,0,0
3956.72,3,2,0,2
3956.72,2,0,0,3
3956.72,2,-4,-4,2
3956.72,3,-2,-1,6
3956.72,7,3,5,11
3956.72,9,4,5,10
3956.72,9,2,0,4
3956.72,5,0,-2,1
3956.72,4,2,0,3
3956.72,5,5,3,3
3956.72,6,6,2,1
3956.72,6,7,3,1
3956.72,6,10,8,3
3956.72,5,11,12,4
3956.73,2,8,7,0
3956.73,-2,4,5,-2
3956.73,-4,3,4,-2
3956.73,-4,2,1,-5
3956.73,-5,0,0,-5
3956.73,-5,0,0,-5
3956.73,-4,0,0,-2
3956.73,0,2,2,2
3956.73,3,6,5,4
3956.73,5,5,4,3
3956.73,4,3,3,3
3956.73,4,4,4,5
3956.73,6,4,4,5
3956.73,6,4,3,3
3956.73,3,1,0,0
3956.73,1,0,0,0
3956.73,2,2,3,4
3956.74,5,5,5,5
3956.74,6,4,2,4
3956.74,5,3,0,1
3956.74,4,1,-4,-1
3956.74,4,2,-2,0
3956.74,5,3,2,6
3956.74,5,1,3,9
3956.74,7,0,1,7
3956.74,5,0,0,6
3956.74,5,-2,-1,5
3956.74,5,0,-1,3
3956.74,6,3,1,4
3956.74,6,5,1,2
3956.74,5,5,1,2
3956.74,4,6,3,2
3956.74,4,6,3,1
3956.74,4,8,6,1
3956.74,3,9,6,0
3956.75,1,8,7,-1
3956.75,0,7,4,-3
3956.75,-1,5,3,-4
3956.75,-3,2,2,-4
3956.75,-4,2,2,-3
3956.75,-2,4,4,0
3956.75,-2,1,3,0
3956.75,0,1,4,3
3956.75,1,3,8,6
3956.75,1,1,6,5
3956.75,2,1,3,3
3956.75,1,2,0,1
3956.75,1,1,0,0
3956.75,2,0,-1,0
3956.75,1,0,0,2
3956.75,4,2,1,5
3956.75,7,2,0,4
3956.76,7,1,-1,3
3956.76,7,3,0,4
3956.76,9,7,5,6
3956.76,10,9,9,10
3956.76,10,8,6,6
3956.76,4,0,0,2
3956.76,1,-3,-2,2
3956.76,1,-3,-1,4
3956.76,3,0,3,7
3956.76,4,0,4,7
3956.76,5,1,2,3
3956.76,3,-1,-3,-1
3956.76,2,1,-2,-1
3956.76,2,2,0,0
3956.76,3,2,-1,0
3956.76,5,6,2,1
3956.76,6,9,5,1
3956.76,5,10,7,0
3956.77,3,10,8,1
3956.77,1,10,11,3
3956.77,1,8,8,0
3956.77,-2,2,1,-5
3956.77,-5,0,-1,-6
3956.77,-5,0,2,-2
3956.77,-2,1,3,1
3956.77,1,3,5,4
3956.77,2,4,8,6
3956.77,3,3,6,6
3956.77,2,0,2,3
3956.77,1,0,-1,0
3956.77,1,-2,-6,-3
3956.77,2,1,-5,-3
3956.77,4,4,0,1
3956.77,7,7,3,4
3956.77,8,7,3,6
3956.78,10,8,6,7
3956.78,9,7,3,4
3956.78,5,5,4,4
3956.78,5,2,0,0
3956.78,1,0,1,3
3956.78,2,0,1,6
3956.78,4,-1,0,6
3956.78,5,0,0,4
3956.78,3,-2,-3,2
3956.78,3,-2,-4,1
3956.78,4,1,-2,1
3956.78,8,6,1,3
3956.78,8,8,4,4
3956.78,7,9,8,7
3956.78,6,8,9,5
3956.78,3,4,5,3
3956.78,2,4,3,-1
3956.79,-1,3,2,-3
3956.79,-3,2,2,-4
3956.79,-3,2,2,-3
3956.79,-2,4,3,-2
3956.79,-1,4,4,-1
3956.79,0,5,4,-2
3956.79,-2,2,2,0
3956.79,-1,0,2,0
3956.79,1,3,3,3
3956.79,3,3,2,3
3956.79,4,4,4,4
3956.79,4,4,5,4
3956.79,4,4,4,4
3956.79,3,2,3,3
3956.79,4,2,2,3
3956.79,4,3,0,0
3956.79,2,0,-4,-1
3956.79,2,0,-6,-2
3956.8,5,4,-1,1
3956.8,7,7,3,6
3956.8,9,10,9,10
3956.8,10,9,9,9
3956.8,6,3,4,6
3956.8,2,-2,0,4
3956.8,0,-5,-6,0
3956.8,0,-5,-5,0
3956.8,0,-4,-3,3
3956.8,4,0,-1,4
3956.8,8,4,1,5
3956.8,9,7,5,6
3956.8,6,6,5,4
3956.8,5,5,5,5
3956.8,5,7,9,7
3956.8,6,8,8,4
3956.8,3,6,6,0
3956.81,0,4,3,-4
3956.81,-5,1,0,-8
3956.81,-6,2,0,-7
3956.81,-4,3,1,-5
3956.81,-2,3,2,-3
3956.81,-1,4,1,-2
3956.81,0,2,1,0
3956.81,2,5,2,2
3956.81,4,5,3,2
3956.81,5,6,5,5
3956.81,7,8,8,7
3956.81,7,6,6,6
3956.81,5,3,3,3
3956.81,2,0,0,1
3956.81,2,0,-1,0
3956.81,3,0,-1,0
3956.81,2,0,-1,1
3956.81,2,3,3,4
3956.82,5,4,5,6
3956.82,7,6,5,6
3956.82,6,5,3,5
3956.82,4,4,2,4
3956.82,3,1,2,4
3956.82,1,-2,0,3
3956.82,2,-3,-2,3
3956.82,3,-1,-3,3
3956.82,5,0,-1,3
3956.82,6,3,0,3
3956.82,6,2,0,2
3956.82,5,4,2,2
3956.82,6,7,6,4
3956.82,5,8,9,7
3956.82,5,7,9,4
3956.82,2,5,4,0
3956.82,-2,1,0,-4
3956.83,-3,1,2,-1
3956.83,-1,2,2,0
3956.83,0,3,1,-1
3956.83,0,5,2,-2
3956.83,0,4,3,0
3956.83,1,5,3,0
3956.83,0,4,0,-1
3956.83,2,4,1,0
3956.83,3,5,4,2
3956.83,2,5,5,4
3956.83,3,6,10,9
3956.83,4,4,9,9
3956.83,3,0,6,7
3956.83,0,-3,1,5
3956.83,0,-3,-2,0
3956.83,2,-3,-7,-3
3956.83,2,-1,-8,-5
3956.83,4,1,-6,-2
3956.84,7,3,-6,-2
3956.84,11,10,1,4
3956.84,15,14,6,7
3956.84,15,14,8,9
3956.84,10,6,4,8
3956.84,6,1,0,5
3956.84,4,-1,-1,3
3956.84,3,-1,0,6
3956.84,4,0,0,5
3956.84,3,0,1,2
3956.84,2,1,2,3
3956.84,3,3,4,2
3956.84,1,1,2,1
3956.84,0,3,4,1
3956.84,-1,1,3,0
3956.84,0,3,2,-2
3956.84,-1,1,0,-5
3956.85,-4,0,-2,-8
3956.85,-3,1,0,-3
3956.85,0,7,6,3
3956.85,5,12,12,7
3956.85,7,13,15,8
3956.85,4,8,11,6
3956.85,0,2,4,1
3956.85,-2,0,0,-2
3956.85,-4,-4,-6,-7
3956.85,-4,-5,-12,-11
3956.85,-2,0,-6,-4
3956.85,5,8,6,8
3956.85,13,16,15,16
3956.85,16,15,15,15
3956.85,13,11,12,12
3956.85,9,5,4,6
3956.85,2,0,0,0
3956.86,-1,-2,-1,0
3956.86,0,1,5,4
3956.86,1,1,2,1
3956.86,0,-1,-1,-2
3956.86,-3,-6,-6,-2
3956.86,-3,-9,-9,-1
3956.86,0,-6,-6,2
3956.86,3,-4,-5,3
3956.86,5,-4,-6,6
3956.86,12,3,0,8
3956.86,13,8,3,7
3956.86,11,10,9,10
3956.86,10,10,11,9
3956.86,7,9,10,7
3956.86,5,6,7,4
3956.86,2,4,2,0
3956.86,1,5,3,-1
3956.86,2,10,7,0
3956.87,3,10,6,-2
3956.87,2,10,4,-5
3956.87,0,9,5,-6
3956.87,-4,6,4,-5
3956.87,-4,4,4,-3
3956.87,-5,1,4,0
3956.87,-3,0,0,-1
3956.87,-3,-2,-1,-3
3956.87,-5,-5,-4,-2
3956.87,-4,-7,-7,-1
3956.87,1,0,0,6
3956.87,10,9,8,10
3956.87,11,8,4,6
3956.87,11,7,2,5
3956.87,10,10,6,7
3956.87,11,9,6,5
3956.87,5,4,1,1
3956.88,1,-1,-2,0
3956.88,1,-4,-5,0
3956.88,2,2,1,5
3956.88,9,9,10,11
3956.88,9,7,7,8
3956.88,3,-1,1,6
3956.88,1,-6,-5,0
3956.88,-1,-7,-8,-3
3956.88,-2,-8,-7,0
3956.88,1,-2,0,7
3956.88,7,3,4,10
3956.88,11,8,8,10
3956.88,11,10,8,5
3956.88,6,9,7,3
3956.88,3,5,3,0
3956.88,4,6,0,-3
3956.88,1,5,0,-6
3956.89,1,8,3,-3
3956.89,3,10,4,-4
3956.89,0,9,4,-5
3956.89,-2,6,5,-1
3956.89,0,7,8,1
3956.89,0,5,7,2
3956.89,-2,-1,2,2
3956.89,-2,-4,0,3
3956.89,2,-1,0,3
3956.89,3,1,2,6
3956.89,5,0,0,2
3956.89,3,0,0,5
3956.89,5,0,0,6
3956.89,8,3,2,7
3956.89,10,6,2,3
3956.89,6,7,3,1
3956.89,2,2,0,0
3956.89,3,7,6,3
3956.9,7,14,12,3
3956.9,6,16,13,0
3956.9,-3,3,5,-3
3956.9,-11,-10,-6,-7
3956.9,-15,-19,-12,-6
3956.9,-10,-15,-5,2
3956.9,-2,-10,-7,3
3956.9,5,-4,-8,2
3956.9,11,4,0,8
3956.9,19,15,7,10
3956.9,19,22,17,12
3956.9,16,23,22,13
3956.9,10,13,12,8
3956.9,6,6,4,2
3956.9,2,4,1,0
3956.9,-1,0,-5,-7
3956.9,-3,-1,-4,-7
3956.91,-4,2,1,-4
3956.91,-1,7,7,0
3956.91,0,10,11,0
3956.91,-3,3,5,-3
3956.91,-8,-1,3,-2
3956.91,-7,-1,3,2
3956.91,0,0,1,3
3956.91,3,-1,-2,1
3956.91,4,-3,-8,0
3956.91,5,-2,-8,1
3956.91,12,4,-6,4
3956.91,14,1,-7,7
3956.91,14,-4,-12,4
3956.91,10,-3,-2,11
3956.91,11,0,5,17
3956.91,15,9,15,22
3956.91,17,18,29,30
3956.91,21,20,24,18
3956.92,13,18,17,4
3956.92,0,6,-4,-18
3956.92,-9,5,-6,-23
3956.92,-11,12,7,-15
3956.92,-17,0,-1,-16
3956.92,-18,-7,-8,-15
3956.92,-12,-5,-5,-6
3956.92,1,7,4,0
3956.92,6,10,5,2
3956.92,6,3,-5,-1
3956.92,6,0,-10,-8
3956.92,0,2,-2,-5
3956.92,-7,-4,0,-1
3956.92,-8,-3,7,7
3956.92,0,4,17,17
3956.92,7,10,20,19
3956.92,8,9,18,15
3956.93,7,7,12,8
3956.93,2,2,0,-4
3956.93,-1,4,1,-1
3956.93,3,8,6,4
3956.93,6,4,0,0
3956.93,3,0,0,3
3956.93,2,-4,-4,2
3956.93,-2,-13,-11,0
3956.93,-1,-13,-10,5
3956.93,8,-2,-3,8
3956.93,14,7,2,4
3956.93,9,8,-1,-3
3956.93,2,5,0,-2
3956.93,3,6,0,1
3956.93,3,2,1,4
3956.93,5,7,8,10
3956.93,11,12,11,10
3956.94,13,16,7,-4
3956.94,3,16,10,-3
3956.94,-2,8,9,-2
3956.94,-10,-9,-4,-4
3956.94,-12,-17,-7,5
3956.94,0,-12,-4,15
3956.94,13,0,2,19
3956.94,23,15,15,25
3956.94,25,15,10,17
3956.94,18,4,-4,2
3956.94,10,1,-9,-5
3956.94,3,4,-2,-3
3956.94,0,3,1,-3
3956.94,-4,1,0,-9
3956.94,-9,3,5,-2
3956.94,0,11,10,4
3956.94,7,9,3,0
3956.94,2,0,-6,-9
3956.95,-6,-6,-20,-33
3956.95,-28,-10,-10,-28
3956.95,-23,4,17,5
3956.95,0,18,31,20
3956.95,11,21,29,22
3956.95,12,14,22,25
3956.95,16,5,8,16
3956.95,9,-6,-8,3
3956.95,4,-8,-13,-2
3956.95,1,-8,-16,-9
3956.95,-4,-8,-12,-7
3956.95,2,3,-3,-1
3956.95,9,5,-11,-12
3956.95,1,-3,-19,-17
3956.95,-1,-3,-16,-12
3956.95,4,8,2,5
3956.95,14,22,23,16
3956.96,9,19,29,21
3956.96,6,14,31,23
3956.96,2,12,38,33
3956.96,5,6,27,25
3956.96,2,-5,5,4
3956.96,-10,-18,-16,-17
3956.96,-21,-23,-26,-24
3956.96,-17,-17,-23,-15
3956.96,-2,-9,-18,0
3956.96,18,7,-2,20
3956.96,36,17,2,19
3956.96,33,18,5,16
3956.96,24,20,19,22
3956.96,17,11,16,16
3956.96,12,6,4,2
3956.96,1,3,0,-7
3956.96,-9,-4,-5,-9
3956.96,-12,-11,-9,-13
3956.97,-18,-14,-8,-10
3956.97,-11,-3,0,-3
3956.97,-2,6,7,0
3956.97,2,10,8,-1
3956.97,0,6,6,0
3956.97,0,5,1,-2
3956.97,1,4,-5,-12
3956.97,-2,6,-3,-11
3956.97,1,13,6,1
3956.97,13,22,11,0
3956.97,12,25,13,-3
3956.97,5,21,13,-4
3956.97,-2,12,15,4
3956.97,-4,-1,6,9
3956.97,-3,-9,3,15
3956.97,2,-8,11,29
3956.97,15,-4,3,25
3956.98,22,-3,-10,10
3956.98,18,0,-11,5
3956.98,14,0,0,17
3956.98,10,-12,-9,12
3956.98,3,-32,-37,-11
3956.98,-7,-28,-29,-7
3956.98,-2,-17,-17,-4
3956.98,-3,-14,-14,-3
3956.98,-2,-8,-11,-6
3956.98,0,3,4,5
3956.98,12,23,26,20
3956.98,24,42,49,33
3956.98,25,41,46,18
3956.98,7,30,37,9
3956.98,-1,24,28,-5
3956.98,-17,1,0,-29
3956.98,-32,-13,-16,-32
3956.98,-23,-1,-4,-15
3956.99,-2,14,6,-5
3956.99,6,16,7,2
3956.99,11,12,2,0
3956.99,8,6,-7,-9
3956.99,-3,-8,-19,-21
3956.99,-17,-16,-18,-17
3956.99,-9,-2,-3,-5
3956.99,5,12,4,-5
3956.99,6,17,5,-13
3956.99,-6,14,9,-13
3956.99,-10,17,23,1
3956.99,0,24,39,30
3956.99,17,20,36,43
3956.99,26,9,19,34
3956.99,18,-8,2,27
3956.99,15,-18,-12,19
3956.99,13,-20,-18,16
3957,15,-19,-24,4
3957,6,-18,-23,-3
3957,-2,-21,-20,-1
3957,0,-19,-15,5
3957,6,-8,-10,-3
3957,-4,-5,-2,-5
3957,-6,3,17,22
3957,17,12,17,31
3957,32,18,14,26
3957,25,6,-3,8
3957,12,-2,-14,-7
3957,0,-4,-11,-10
3957,-6,-5,-8,-11
3957,-8,-2,-2,-3
3957,0,6,5,2
3957,8,14,9,1
3957,3,12,11,-1
3957,-5,4,6,-5
3957.01,-8,5,8,-8
3957.01,-8,16,13,-21
3957.01,-20,14,13,-23
3957.01,-21,17,17,-11
3957.01,-7,19,18,0
3957.01,5,20,14,0
3957.01,4,14,8,-1
3957.01,0,9,5,-1
3957.01,4,10,1,-7
3957.01,0,7,0,-9
3957.01,-7,-1,-3,-9
3957.01,-11,-6,1,4
3957.01,0,2,12,15
3957.01,9,10,21,24
3957.01,15,10,18,25
3957.01,16,4,8,22
3957.01,17,-1,0,19
3957.02,18,-7,-13,4
3957.02,9,-10,-11,6
3957.02,9,-8,-9,7
3957.02,7,-10,-12,2
3957.02,2,-13,-18,-3
3957.02,2,-9,-11,7
3957.02,16,0,-11,2
3957.02,11,-5,-20,-9
3957.02,2,-8,-23,-16
3957.02,0,0,-13,-12
3957.02,4,12,6,4
3957.02,13,23,24,13
3957.02,9,20,26,10
3957.02,0,12,22,11
3957.02,5,16,22,16
3957.02,15,20,17,11
3957.02,13,17,10,1
3957.03,1,3,-4,-16
3957.03,-16,-10,-16,-28
3957.03,-24,-12,-20,-34
3957.03,-27,-8,-10,-25
3957.03,-16,4,4,-7
3957.03,1,16,12,5
3957.03,10,15,10,7
3957.03,5,4,7,10
3957.03,0,-5,3,10
3957.03,1,-3,10,18
3957.03,11,7,15,20
3957.03,15,12,10,7
3957.03,6,11,9,1
3957.03,0,9,9,1
3957.03,0,6,7,1
3957.03,1,9,13,9
3957.03,9,14,14,9
3957.03,7,8,9,6
3957.04,1,-1,0,1
3957.04,-4,-8,-4,1
3957.04,-1,-9,-7,2
3957.04,2,-7,-6,9
3957.04,12,-7,-12,5
3957.04,9,-12,-24,-11
3957.04,-3,-14,-21,-13
3957.04,-1,0,-2,2
3957.04,7,11,13,12
3957.04,13,18,20,15
3957.04,13,17,17,10
3957.04,5,7,8,3
3957.04,2,5,4,2
3957.04,1,3,4,2
3957.04,2,4,3,0
3957.04,2,8,8,6
3957.04,9,11,7,10
3957.05,15,10,3,10
3957.05,20,10,-5,1
3957.05,15,4,-17,-13
3957.05,5,-1,-25,-26
3957.05,-10,-13,-32,-37
3957.05,-26,-23,-31,-34
3957.05,-27,-15,-6,-5
3957.05,-6,2,17,19
3957.05,8,4,12,9
3957.05,-3,0,14,9
3957.05,0,11,24,15
3957.05,7,21,25,4
3957.05,-2,18,23,3
3957.05,-1,16,20,2
3957.05,0,18,24,12
3957.05,8,18,22,15
3957.05,13,14,11,3
3957.05,3,7,2,-4
3957.06,-3,4,4,0
3957.06,1,7,7,5
3957.06,6,4,3,8
3957.06,6,-4,-4,10
3957.06,11,-5,-6,12
3957.06,14,-2,-5,12
3957.06,12,-6,-9,6
3957.06,8,-9,-11,6
3957.06,10,-8,-13,3
3957.06,7,-6,-12,-1
3957.06,3,-6,-7,5
3957.06,9,-1,-5,4
3957.06,7,-3,-8,-2
3957.06,0,-4,-7,-6
3957.06,-2,1,4,4
3957.06,6,13,11,5
3957.06,6,11,3,-10
3957.07,-7,4,2,-10
3957.07,-8,7,8,-5
3957.07,-6,8,11,2
3957.07,0,9,12,5
3957.07,1,4,7,5
3957.07,2,2,4,6
3957.07,7,7,9,10
3957.07,10,8,6,4
3957.07,4,3,1,-2
3957.07,-2,0,1,-1
3957.07,-3,-1,-1,-4
3957.07,-5,-4,-3,-2
3957.07,0,2,3,4
3957.07,5,7,6,5
3957.07,7,9,7,7
3957.07,8,7,6,6
3957.07,7,5,3,4
3957.08,5,4,1,2
3957.08,4,1,0,2
3957.08,4,1,0,2
3957.08,3,-2,-3,2
3957.08,2,-6,-5,4
3957.08,5,-5,-4,6
3957.08,8,0,0,8
3957.08,7,-1,-1,8
3957.08,9,2,0,8
3957.08,10,4,2,7
3957.08,9,6,3,6
3957.08,8,7,4,4
3957.08,6,7,5,3
3957.08,5,7,4,0
3957.08,4,10,5,-3
3957.08,0,10,5,-7
3957.08,-3,12,8,-6
3957.08,-2,12,9,-5
3957.09,-3,7,3,-10
3957.09,-9,3,1,-9
3957.09,-7,3,2,-7
3957.09,-6,2,1,-4
3957.09,-4,0,1,0
3957.09,2,3,4,4
3957.09,4,4,3,2
3957.09,0,0,-2,-3
3957.09,-4,-4,-2,-1
3957.09,-2,0,4,4
3957.09,3,6,9,8
3957.09,6,8,12,13
3957.09,12,9,9,11
3957.09,11,9,6,8
3957.09,10,6,4,6
3957.09,8,3,1,2
3957.09,3,-2,-4,-1
3957.1,0,-6,-8,-3
3957.1,-1,-4,-5,0
3957.1,3,0,0,4
3957.1,5,0,0,7
3957.1,6,-2,-2,6
3957.1,7,-1,-1,9
3957.1,10,1,0,10
3957.1,12,4,3,13
3957.1,16,8,6,14
3957.1,14,7,4,9
3957.1,8,5,0,1
3957.1,2,1,0,0
3957.1,0,1,0,1
3957.1,3,5,3,1
3957.1,3,8,4,-2
3957.1,-1,4,0,-10
3957.1,-8,1,0,-11
3957.1,-10,1,0,-8
3957.11,-6,5,6,-3
3957.11,-2,6,4,-4
3957.11,-1,8,5,-4
3957.11,-1,8,6,-2
3957.11,-2,6,5,-2
3957.11,-2,4,4,-2
3957.11,-2,2,2,0
3957.11,0,3,4,4
3957.11,6,8,7,8
3957.11,9,12,9,7
3957.11,7,6,5,5
3957.11,6,3,3,6
3957.11,6,3,1,5
3957.11,6,3,3,8
3957.11,6,2,1,6
3957.11,6,0,1,6
3957.11,7,3,3,6
3957.12,6,3,3,5
3957.12,5,2,0,3
3957.12,3,-1,-1,3
3957.12,1,-5,-4,5
3957.12,4,-5,-4,7
3957.12,9,-2,-3,7
3957.12,8,-4,-6,4
3957.12,5,-4,-6,3
3957.12,6,-2,-6,1
3957.12,5,0,-4,2
3957.12,7,5,2,7
3957.12,11,9,3,5
3957.12,7,5,2,0
3957.12,2,7,6,0
3957.12,1,9,9,0
3957.12,-1,12,15,0
3957.12,0,17,19,1
3957.12,-4,10,13,-2
3957.13,-10,0,3,-9
3957.13,-13,-5,-8,-17
3957.13,-12,-6,-13,-19
3957.13,-12,-5,-10,-13
3957.13,-7,0,0,-1
3957.13,4,11,12,10
3957.13,11,18,18,13
3957.13,12,15,17,14
3957.13,12,12,14,12
3957.13,9,9,8,3
3957.13,0,1,3,0
3957.13,-2,-3,-6,-7
3957.13,-3,-3,-7,-5
3957.13,2,5,6,9
3957.13,10,10,15,18
3957.13,13,6,10,16
3957.13,11,3,4,9
3957.14,5,-2,-2,0
3957.14,0,-8,-11,-6
3957.14,-6,-13,-14,-6
3957.14,-4,-13,-17,-5
3957.14,2,-7,-14,-2
3957.14,9,0,-9,3
3957.14,14,4,-6,5
3957.14,20,11,0,7
3957.14,19,20,17,19
3957.14,24,31,38,30
3957.14,19,22,34,23
3957.14,3,8,24,16
3957.14,-5,-2,15,8
3957.14,-13,-18,-12,-17
3957.14,-21,-21,-26,-30
3957.14,-21,-15,-27,-32
3957.14,-15,-4,-15,-20
3957.15,-1,12,3,-3
3957.15,9,21,11,1
3957.15,12,25,17,5
3957.15,11,25,22,8
3957.15,6,14,15,3
3957.15,-3,2,4,-4
3957.15,-11,-10,-6,-9
3957.15,-14,-16,-15,-12
3957.15,-7,-7,-8,0
3957.15,6,-4,-13,-1
3957.15,10,-4,-19,-1
3957.15,21,12,0,13
3957.15,32,30,22,24
3957.15,27,23,21,22
3957.15,18,15,16,15
3957.15,8,9,15,10
3957.15,0,1,8,2
3957.15,-4,2,11,5
3957.16,-4,3,14,4
3957.16,-11,-7,5,0
3957.16,-18,-17,0,0
3957.16,-16,-21,-5,3
3957.16,-9,-18,-6,3
3957.16,-6,-21,-19,-5
3957.16,-1,-15,-20,-5
3957.16,9,3,-4,4
3957.16,15,10,1,7
3957.16,19,15,6,11
3957.16,22,17,4,8
3957.16,20,18,5,5
3957.16,18,29,27,17
3957.16,16,32,42,21
3957.16,0,3,7,-10
3957.16,-25,-22,-23,-32
3957.16,-28,-16,-18,-24
3957.17,-12,0,-3,-12
3957.17,-8,2,10,5
3957.17,-1,0,5,7
3957.17,5,-1,-8,-4
3957.17,6,0,-13,-4
3957.17,15,19,12,14
3957.17,24,25,22,21
3957.17,22,19,15,14
3957.17,16,14,10,11
3957.17,12,8,2,3
3957.17,2,-2,-4,-3
3957.17,-8,-11,-5,-2
3957.17,-10,-9,3,6
3957.17,-3,-6,6,13
3957.17,6,0,1,6
3957.17,2,-8,-13,-9
3957.17,-8,-19,-28,-18
3957.18,-4,-8,-15,-4
3957.18,13,10,0,6
3957.18,23,19,2,5
3957.18,14,10,0,3
3957.18,6,3,7,12
3957.18,6,-1,5,10
3957.18,6,1,6,12
3957.18,12,14,23,24
3957.18,14,7,8,7
3957.18,0,-7,-6,-2
3957.18,-5,-5,0,5
3957.18,3,0,-3,0
3957.18,5,0,-13,-12
3957.18,2,3,-10,-13
3957.18,0,4,-7,-12
3957.18,0,13,9,2
3957.18,10,28,36,24
3957.18,16,30,40,26
3957.19,6,15,30,13
3957.19,-13,-14,-4,-13
3957.19,-27,-27,-19,-19
3957.19,-21,-16,-9,-7
3957.19,-7,-13,-19,-13
3957.19,-3,-4,-12,-7
3957.19,7,8,1,4
3957.19,14,10,-2,1
3957.19,13,11,4,6
3957.19,13,12,7,9
3957.19,14,17,21,20
3957.19,13,12,17,16
3957.19,7,2,6,10
3957.19,5,5,13,14
3957.19,3,-1,5,5
3957.19,-5,-13,-12,-9
3957.19,-11,-17,-16,-11
3957.2,-9,-10,-7,-2
3957.2,0,-1,2,6
3957.2,4,0,-3,1
3957.2,2,-5,-10,0
3957.2,9,0,-13,0
3957.2,20,11,-7,2
3957.2,23,14,-5,2
3957.2,22,15,0,7
3957.2,23,28,27,28
3957.2,29,36,47,40
3957.2,18,22,41,27
3957.2,-5,-6,14,1
3957.2,-26,-25,-5,-12
3957.2,-30,-27,-15,-19
3957.2,-26,-24,-24,-26
3957.2,-18,-16,-30,-31
3957.2,-12,-9,-29,-27
3957.2,0,7,-14,-13
3957.21,16,30,15,11
3957.21,31,45,40,28
3957.21,29,37,33,19
3957.21,12,15,13,3
3957.21,-1,5,10,1
3957.21,-5,-1,2,-4
3957.21,-12,-9,-4,-6
3957.21,-11,-7,0,0
3957.21,-5,-3,0,0
3957.21,-1,1,3,2
3957.21,3,7,5,2
3957.21,3,6,1,-2
3957.21,1,1,-10,-11
3957.21,0,0,-12,-12
3957.21,3,7,-3,-2
3957.21,6,7,0,4
3957.21,11,7,1,7
3957.22,15,13,10,13
3957.22,17,17,15,15
3957.22,11,11,18,19
3957.22,6,1,14,19
3957.22,5,-5,4,10
3957.22,0,-8,0,4
3957.22,-3,-7,0,3
3957.22,-3,-6,-2,-3
3957.22,-5,-5,-5,-5
3957.22,-1,0,0,-2
3957.22,0,5,3,0
3957.22,1,5,4,0
3957.22,0,4,6,3
3957.22,1,4,3,0
3957.22,3,12,16,7
3957.22,4,13,14,2
3957.22,0,5,4,-5
3957.23,-4,2,-2,-10
3957.23,-5,3,-2,-9
3957.23,-2,5,0,-6
3957.23,0,8,5,0
3957.23,2,7,4,0
3957.23,2,4,2,0
3957.23,1,2,0,0
3957.23,3,2,1,4
3957.23,7,5,5,7
3957.23,8,4,5,6
3957.23,5,1,3,3
3957.23,0,0,4,5
3957.23,0,0,9,11
3957.23,5,3,8,9
3957.23,5,5,7,8
3957.23,7,4,1,2
3957.23,4,2,-5,-4
3957.23,0,3,4,3
3957.24,0,-1,1,2
3957.24,0,-3,-2,0
3957.24,0,-6,-7,0
3957.24,3,-9,-17,-7
3957.24,5,-6,-23,-9
3957.24,13,9,-4,4
3957.24,21,15,1,8
3957.24,22,20,13,16
3957.24,21,19,15,14
3957.24,12,5,0,2
3957.24,4,0,-1,1
3957.24,2,1,3,3
3957.24,0,1,5,4
3957.24,2,5,10,5
3957.24,0,5,10,3
3957.24,-4,1,2,-7
3957.24,-9,0,3,-5
3957.25,-7,4,7,-1
3957.25,-4,0,1,-2
3957.25,-4,-2,-2,-4
3957.25,-3,-2,-3,-4
3957.25,-4,-3,-2,0
3957.25,1,3,4,7
3957.25,9,9,10,11
3957.25,10,10,11,9
3957.25,6,6,7,6
3957.25,2,0,3,4
3957.25,1,0,0,2
3957.25,1,-1,-1,1
3957.25,2,0,1,3
3957.25,1,0,2,4
3957.25,2,0,-1,1
3957.25,4,0,-2,0
3957.25,5,3,-1,0
3957.25,6,4,-1,0
3957.26,6,5,-2,-1
3957.26,5,3,-2,0
3957.26,7,3,-1,4
3957.26,10,11,17,21
3957.26,13,10,20,22
3957.26,6,-5,-1,4
3957.26,-1,-12,-16,-9
3957.26,-1,-6,-14,-8
3957.26,3,4,1,4
3957.26,7,9,13,11
3957.26,5,7,12,12
3957.26,6,7,14,14
3957.26,7,6,8,4
3957.26,0,0,-1,-7
3957.26,-5,0,-6,-13
3957.26,-7,-3,-15,-19
3957.26,-2,4,-13,-17
3957.27,5,21,10,0
3957.27,9,18,10,0
3957.27,3,9,5,0
3957.27,0,8,10,6
3957.27,5,11,18,15
3957.27,4,3,11,8
3957.27,-2,0,13,12
3957.27,-1,-2,10,9
3957.27,-2,-5,2,3
3957.27,-3,-7,-8,-7
3957.27,-6,-10,-17,-14
3957.27,-4,-6,-16,-13
3957.27,0,0,-11,-6
3957.27,9,12,3,6
3957.27,20,22,14,14
3957.27,21,23,21,19
3957.27,14,11,14,12
3957.27,4,-5,-10,-7
3957.28,-1,-4,-11,-6
3957.28,3,2,-1,3
3957.28,6,2,3,8
3957.28,6,2,10,15
3957.28,5,2,13,17
3957.28,4,-4,5,11
3957.28,2,-5,-2,2
3957.28,0,-8,-8,-5
3957.28,-4,-6,-8,-5
3957.28,-1,1,2,3
3957.28,5,7,5,4
3957.28,8,10,8,4
3957.28,6,9,5,0
3957.28,1,7,4,-2
3957.28,0,8,7,0
3957.28,0,12,15,6
3957.28,2,10,11,2
3957.29,-2,2,3,-4
3957.29,-8,-5,-8,-11
3957.29,-8,-1,-2,-5
3957.29,-2,3,0,0
3957.29,4,5,0,0
3957.29,6,9,3,1
3957.29,7,7,2,1
3957.29,5,3,0,1
3957.29,6,3,-1,1
3957.29,7,7,4,6
3957.29,7,6,4,5
3957.29,5,3,4,5
3957.29,4,5,8,8
3957.29,5,3,6,5
3957.29,2,0,1,2
3957.29,0,-2,-1,1
3957.29,0,0,1,4
3957.3,4,2,3,4
3957.3,5,4,4,6
3957.3,2,-1,0,4
3957.3,2,-3,-1,4
3957.3,3,-1,-1,5
3957.3,4,0,-1,4
3957.3,6,2,1,5
3957.3,7,4,2,3
3957.3,5,5,3,4
3957.3,6,6,4,5
3957.3,5,1,0,2
3957.3,2,0,-3,0
3957.3,3,2,0,1
3957.3,5,7,6,1
3957.3,3,7,5,0
3957.3,2,9,7,0
3957.3,1,8,6,-1
3957.3,0,8,5,-3
3957.31,-2,6,3,-5
3957.31,-5,2,1,-4
3957.31,-3,0,0,-1
3957.31,0,0,0,0
3957.31,3,2,1,2
3957.31,4,3,3,5
3957.31,5,4,4,5
3957.31,6,6,4,1
3957.31,1,2,2,0
3957.31,-1,0,1,0
3957.31,0,0,0,1
3957.31,3,4,5,7
3957.31,8,9,11,11
3957.31,8,9,12,9
3957.31,6,11,18,12
3957.31,1,2,8,5
3957.31,-5,-9,-9,-8
3957.32,-7,-9,-10,-8
3957.32,-4,-7,-11,-7
3957.32,-1,-7,-13,-2
3957.32,6,1,-2,6
3957.32,14,9,6,13
3957.32,16,9,6,13
3957.32,14,7,4,8
3957.32,9,5,4,7
3957.32,8,6,5,7
3957.32,7,7,8,7
3957.32,6,5,4,2
3957.32,1,0,-2,-3
3957.32,-1,1,0,-3
3957.32,0,3,4,0
3957.32,1,8,7,0
3957.32,0,7,5,-2
3957.32,-1,4,2,-4
3957.32,-2,4,3,-3
3957.33,-1,5,4,-1
3957.33,0,7,8,1
3957.33,0,6,7,2
3957.33,0,3,5,1
3957.33,0,0,1,0
3957.33,-2,0,1,0
3957.33,0,1,3,3
3957.33,1,2,3,3
3957.33,1,-2,-5,-1
3957.33,2,0,-5,-2
3957.33,4,4,-1,0
3957.33,6,7,5,6
3957.33,8,9,11,12
3957.33,10,9,10,12
3957.33,7,4,5,7
3957.33,5,0,0,2
3957.33,2,-3,-5,-1
3957.34,0,-2,-2,2
3957.34,3,1,3,7
3957.34,3,-2,0,6
3957.34,4,-3,-6,2
3957.34,5,1,0,5
3957.34,6,0,-1,6
3957.34,8,2,0,4
3957.34,8,5,2,5
3957.34,11,11,6,4
3957.34,7,9,6,3
3957.34,3,2,-1,-3
3957.34,-1,2,1,-1
3957.34,1,9,9,3
3957.34,3,7,4,-2
3957.34,0,5,3,-4
3957.34,0,5,5,-2
3957.34,-1,7,10,3
3957.34,0,3,6,0
3957.35,-2,0,0,-4
3957.35,-3,2,2,-1
3957.35,-1,4,7,3
3957.35,0,1,3,1
3957.35,1,2,2,2
3957.35,1,1,-1,0
3957.35,2,2,0,0
3957.35,2,1,1,2
3957.35,3,0,-4,0
3957.35,4,3,0,2
3957.35,8,8,6,7
3957.35,10,7,4,5
3957.35,8,5,2,5
3957.35,7,4,2,4
3957.35,7,4,1,4
3957.35,9,9,7,6
3957.35,4,4,4,3
3957.36,0,0,0,-1
3957.36,-3,-4,-3,-1
3957.36,-3,-3,6,9
3957.36,0,0,14,17
3957.36,2,-3,10,13
3957.36,0,-7,1,7
3957.36,0,-7,-4,3
3957.36,1,-8,-13,-6
3957.36,1,-6,-18,-12
3957.36,3,0,-17,-12
3957.36,10,10,-6,-2
3957.36,18,22,9,7
3957.36,21,26,17,10
3957.36,17,26,22,12
3957.36,11,20,20,7
3957.36,2,8,9,-1
3957.36,-5,0,1,-7
3957.37,-8,1,6,-4
3957.37,-10,-4,-2,-8
3957.37,-10,-4,-4,-9
3957.37,-7,-3,-5,-7
3957.37,-2,2,4,1
3957.37,0,2,5,5
3957.37,0,0,5,6
3957.37,2,1,5,7
3957.37,3,0,0,4
3957.37,4,0,-2,1
3957.37,6,4,0,2
3957.37,5,5,4,5
3957.37,6,6,6,9
3957.37,8,6,7,9
3957.37,7,2,0,2
3957.37,4,0,-4,-2
3957.37,3,2,-2,0
3957.38,5,6,4,6
3957.38,8,10,9,8
3957.38,5,2,4,6
3957.38,1,-1,5,8
3957.38,0,-7,0,6
3957.38,-1,-9,-6,2
3957.38,1,-6,-7,0
3957.38,5,0,-2,2
3957.38,6,3,1,4
3957.38,6,5,4,5
3957.38,6,7,6,7
3957.38,10,8,4,2
3957.38,8,7,0,-2
3957.38,6,8,-1,-6
3957.38,1,6,0,-6
3957.38,1,9,1,-4
3957.38,4,16,14,5
3957.38,7,16,15,3
3957.39,0,7,7,-2
3957.39,-5,0,1,-4
3957.39,-7,-2,0,-3
3957.39,-5,-2,1,0
3957.39,-1,0,3,1
3957.39,0,0,1,1
3957.39,0,0,1,3
3957.39,2,3,3,4
3957.39,4,3,4,4
3957.39,4,2,1,2
3957.39,3,1,-1,1
3957.39,4,1,-2,1
3957.39,6,5,1,5
3957.39,8,6,4,6
3957.39,9,7,6,8
3957.39,9,8,7,6
3957.39,7,6,4,4
3957.4,3,3,4,3
3957.4,0,-4,-3,-1
3957.4,-4,-10,-13,-4
3957.4,0,-5,-7,0
3957.4,5,0,-3,3
3957.4,7,2,1,8
3957.4,10,7,7,11
3957.4,9,6,9,11
3957.4,8,3,2,3
3957.4,3,0,-3,-2
3957.4,1,2,0,0
3957.4,2,4,3,1
3957.4,5,12,15,10
3957.4,7,13,18,10
3957.4,5,12,15,5
3957.4,0,4,6,-4
3957.4,-8,-3,-6,-13
3957.4,-10,-4,-8,-13
3957.41,-8,-3,-11,-15
3957.41,-3,1,-7,-8
3957.41,2,10,5,2
3957.41,7,12,12,10
3957.41,9,12,14,13
3957.41,8,6,4,5
3957.41,5,4,3,4
3957.41,4,6,11,8
3957.41,1,0,2,2
3957.41,-2,-4,-2,0
3957.41,0,-1,0,2
3957.41,4,3,3,4
3957.41,4,0,-1,0
3957.41,0,-5,-10,-5
3957.41,1,-1,-5,0
3957.41,9,9,6,8
3957.41,13,13,9,8
3957.42,9,6,2,2
3957.42,2,-1,-3,0
3957.42,0,-4,-3,4
3957.42,5,0,1,8
3957.42,8,3,5,10
3957.42,8,2,3,9
3957.42,7,3,6,8
3957.42,6,2,4,5
3957.42,4,3,4,2
3957.42,2,2,3,0
3957.42,0,1,0,-1
3957.42,-1,0,0,-2
3957.42,1,3,1,0
3957.42,2,6,1,-2
3957.42,2,7,4,-1
3957.42,1,9,6,0
3957.42,1,9,6,-1
3957.42,1,8,5,-2
3957.43,-1,5,3,-3
3957.43,-3,2,2,-3
3957.43,-4,0,1,0
3957.43,0,1,2,2
3957.43,1,3,4,4
3957.43,3,5,7,7
3957.43,3,3,6,6
3957.43,2,2,5,5
3957.43,3,1,2,4
3957.43,3,1,0,1
3957.43,2,2,2,2
3957.43,2,3,3,3
3957.43,2,0,-3,0
3957.43,5,1,-5,-2
3957.43,5,4,-3,0
3957.43,8,7,0,2
3957.43,8,7,4,6
3957.44,8,5,5,7
3957.44,7,1,0,6
3957.44,6,-2,-4,2
3957.44,5,-2,-5,1
3957.44,5,0,-2,4
3957.44,7,2,2,8
3957.44,9,5,2,6
3957.44,9,5,0,3
3957.44,7,5,1,0
3957.44,4,6,4,3
3957.44,4,11,18,13
3957.44,6,9,15,9
3957.44,0,6,10,2
3957.44,-5,1,4,-4
3957.44,-10,-3,-2,-10
3957.44,-12,-6,-4,-11
3957.44,-9,-3,-4,-8
3957.45,-4,-3,-9,-10
3957.45,0,1,-10,-10
3957.45,4,8,-2,-2
3957.45,10,17,12,10
3957.45,15,19,19,16
3957.45,14,17,21,17
3957.45,11,12,19,13
3957.45,3,2,5,2
3957.45,-5,-8,-4,-4
3957.45,-7,-9,-6,-4
3957.45,-5,-5,-2,0
3957.45,0,-1,0,1
3957.45,1,0,-1,0
3957.45,2,1,0,2
3957.45,5,4,2,5
3957.45,7,5,4,6
3957.45,7,5,4,5
3957.45,5,4,2,3
3957.46,4,2,1,2
3957.46,2,0,0,3
3957.46,3,0,0,6
3957.46,6,0,0,5
3957.46,5,-2,-3,4
3957.46,6,0,-1,4
3957.46,7,2,-1,3
3957.46,8,4,0,2
3957.46,8,6,2,2
3957.46,7,7,2,1
3957.46,6,7,3,2
3957.46,6,8,5,1
3957.46,3,8,7,0
3957.46,2,9,8,1
3957.46,1,9,8,0
3957.46,-1,6,5,-2
3957.46,-4,1,1,-6
3957.47,-6,0,0,-6
3957.47,-5,1,2,-1
3957.47,-2,3,9,5
3957.47,0,3,10,8
3957.47,1,3,12,10
3957.47,0,-1,4,3
3957.47,-2,-7,-9,-6
3957.47,-2,-6,-15,-10
3957.47,0,-3,-17,-12
3957.47,5,5,-10,-5
3957.47,13,16,9,10
3957.47,19,20,16,16
3957.47,18,18,19,17
3957.47,14,15,19,15
3957.47,6,3,8,6
3957.47,-2,-3,0,0
3957.47,-5,-8,-7,-6
3957.47,-5,-6,-7,-5
3957.48,-3,-4,-4,0
3957.48,0,-5,-3,2
3957.48,2,-1,0,7
3957.48,6,2,4,10
3957.48,8,1,3,9
3957.48,8,2,5,10
3957.48,7,1,0,6
3957.48,7,2,0,3
3957.48,5,3,-1,0
3957.48,5,4,-2,-2
3957.48,4,6,0,-2
3957.48,7,12,5,0
3957.48,5,13,9,1
3957.48,5,12,8,0
3957.48,2,9,6,-3
3957.48,0,7,5,-4
3957.48,-2,6,7,-2
3957.49,-5,1,4,-2
3957.49,-6,-2,0,-3
3957.49,-5,-1,0,-1
3957.49,-1,1,1,0
3957.49,0,1,0,0
3957.49,0,0,-2,0
3957.49,2,1,-1,2
3957.49,7,8,7,9
3957.49,11,10,10,10
3957.49,8,5,6,7
3957.49,5,2,3,4
3957.49,4,2,2,4
3957.49,4,2,2,4
3957.49,4,1,0,2
3957.49,2,0,0,1
3957.49,1,0,-1,0
3957.49,2,1,-1,0
3957.5,3,1,-3,0
3957.5,4,-1,-4,1
3957.5,4,0,-3,4
3957.5,7,1,0,7
3957.5,8,3,1,6
3957.5,7,3,4,8
3957.5,8,7,8,9
3957.5,7,4,5,6
3957.5,3,4,5,5
3957.5,3,5,8,6
3957.5,3,4,7,3
3957.5,0,0,1,-1
3957.5,-1,0,-3,-8
3957.5,-3,1,-4,-8
3957.5,-2,5,0,-5
3957.5,0,8,5,-1
3957.5,3,11,8,0
3957.5,1,9,8,0
3957.51,1,8,7,0
3957.51,0,6,10,5
3957.51,0,2,5,2
3957.51,-1,-1,0,-1
3957.51,-2,-1,-1,0
3957.51,0,-1,0,1
3957.51,1,0,0,2
3957.51,5,3,1,3
3957.51,5,4,2,4
3957.51,6,5,3,4
3957.51,6,4,2,4
3957.51,6,5,3,3
3957.51,5,4,2,3
3957.51,4,2,1,2
3957.51,4,3,2,4
3957.51,5,4,2,3
3957.51,4,3,1,1
3957.52,2,1,0,1
3957.52,0,-1,4,8
3957.52,3,0,4,10
3957.52,4,-1,1,7
3957.52,3,-4,-4,2
3957.52,2,-3,-5,0
3957.52,4,-1,-4,0
3957.52,7,2,-4,0
3957.52,10,8,0,1
3957.52,11,13,6,5
3957.52,10,18,22,17
3957.52,9,12,16,10
3957.52,1,1,0,-4
3957.52,-2,0,-7,-11
3957.52,-5,1,-5,-12
3957.52,-5,2,-3,-8
3957.52,-1,6,4,-2
3957.52,0,8,7,1
3957.53,2,8,6,0
3957.53,1,4,1,-1
3957.53,-1,1,0,-1
3957.53,-1,0,1,1
3957.53,2,2,4,5
3957.53,5,5,6,6
3957.53,5,3,2,3
3957.53,2,1,1,1
3957.53,2,1,1,2
3957.53,4,4,3,4
3957.53,7,8,7,7
3957.53,7,6,5,4
3957.53,4,3,2,1
3957.53,1,0,0,0
3957.53,1,0,1,4
3957.53,5,3,6,9
3957.53,6,1,2,4
3957.54,2,-3,-3,1
3957.54,0,-5,-5,1
3957.54,3,-1,0,5
3957.54,6,2,2,7
3957.54,6,0,0,6
3957.54,5,0,0,4
3957.54,5,1,0,3
3957.54,5,4,3,4
3957.54,7,8,9,7
3957.54,5,6,7,5
3957.54,2,3,2,0
3957.54,1,2,0,-3
3957.54,0,1,-2,-6
3957.54,-1,5,1,-3
3957.54,1,6,0,-5
3957.54,0,6,-1,-7
3957.54,2,9,2,-4
3957.54,3,11,6,0
3957.55,4,10,8,2
3957.55,2,7,9,5
3957.55,3,7,12,10
3957.55,4,4,7,5
3957.55,0,0,1,1
3957.55,-1,-2,0,-1
3957.55,-3,-3,0,0
3957.55,-1,-2,-1,0
3957.55,1,0,0,0
3957.55,2,0,-2,0
3957.55,4,3,0,2
3957.55,5,2,0,3
3957.55,8,7,3,5
3957.55,11,9,5,7
3957.55,10,8,4,4
3957.55,6,3,1,3
3957.55,4,2,3,5
3957.56,5,2,3,6
3957.56,4,0,1,5
3957.56,4,0,4,7
3957.56,1,-4,0,3
3957.56,-2,-9,-7,0
3957.56,0,-4,-3,1
3957.56,4,2,1,6
3957.56,6,3,1,3
3957.56,5,3,2,4
3957.56,6,6,4,4
3957.56,7,8,5,5
3957.56,8,10,7,2
3957.56,4,9,4,-1
3957.56,1,8,4,-3
3957.56,-1,7,5,-3
3957.56,-1,8,9,0
3957.56,-1,6,5,-2
3957.56,-3,1,-1,-6
3957.57,-4,1,0,-2
3957.57,-1,2,3,1
3957.57,1,4,9,7
3957.57,1,4,12,10
3957.57,1,1,7,5
3957.57,-2,-3,1,1
3957.57,-2,-3,-2,-1
3957.57,-1,-1,-1,0
3957.57,0,-2,-6,-4
3957.57,2,-2,-12,-6
3957.57,8,8,-3,1
3957.57,15,17,10,10
3957.57,16,15,11,10
3957.57,12,9,6,6
3957.57,9,6,2,4
3957.57,6,4,1,3
3957.57,4,1,-1,0
3957.58,0,-5,-6,0
3957.58,0,-7,-7,1
3957.58,3,-1,-1,6
3957.58,8,2,1,8
3957.58,9,3,2,7
3957.58,9,5,3,5
3957.58,7,5,1,2
3957.58,5,4,2,1
3957.58,3,4,4,3
3957.58,3,4,5,2
3957.58,1,4,5,1
3957.58,1,6,7,0
3957.58,0,6,7,0
3957.58,0,7,7,-1
3957.58,-1,5,6,-1
3957.58,-3,2,3,-4
3957.58,-5,1,1,-4
3957.59,-4,2,3,-2
3957.59,-2,1,1,-1
3957.59,-1,0,1,0
3957.59,0,0,-1,0
3957.59,2,4,3,4
3957.59,6,7,7,8
3957.59,8,7,6,6
3957.59,6,4,2,2
3957.59,3,0,-4,-1
3957.59,4,3,0,3
3957.59,7,7,7,9
3957.59,7,5,4,5
3957.59,4,4,8,8
3957.59,3,2,8,8
3957.59,2,0,0,2
3957.59,0,0,-1,0
3957.59,1,0,0,0
3957.59,0,0,1,2
3957.6,-1,-5,-3,2
3957.6,1,-5,-3,4
3957.6,5,0,0,6
3957.6,7,0,0,6
3957.6,8,2,0,7
3957.6,9,6,3,7
3957.6,9,9,8,9
3957.6,9,9,7,6
3957.6,5,5,4,1
3957.6,2,0,-2,-3
3957.6,0,1,-4,-6
3957.6,0,5,-1,-6
3957.6,1,8,2,-3
3957.6,3,11,6,-1
3957.6,2,11,7,0
3957.6,3,10,8,0
3957.6,1,8,5,-2
3957.61,0,4,1,-4
3957.61,-3,1,1,-2
3957.61,-2,1,2,2
3957.61,1,3,7,6
3957.61,3,4,8,6
3957.61,1,3,9,8
3957.61,0,-1,3,4
3957.61,-1,-5,-2,0
3957.61,0,-2,-1,1
3957.61,2,0,-3,-1
3957.61,2,0,-5,-2
3957.61,4,3,0,1
3957.61,8,10,6,6
3957.61,11,12,9,9
3957.61,11,10,7,5
3957.61,5,2,0,1
3957.61,2,0,-2,0
3957.61,1,-1,-1,4
3957.62,3,0,2,8
3957.62,6,-1,0,6
3957.62,5,-3,-4,3
3957.62,4,-3,-4,2
3957.62,6,1,-1,3
3957.62,7,3,-1,2
3957.62,9,4,-2,0
3957.62,8,8,2,2
3957.62,9,13,12,9
3957.62,9,11,10,6
3957.62,5,8,7,1
3957.62,0,4,4,-2
3957.62,-3,5,8,0
3957.62,-5,2,4,-3
3957.62,-5,0,0,-7
3957.62,-7,1,1,-4
3957.62,-3,4,3,-2
3957.63,-2,5,5,0
3957.63,-2,1,3,0
3957.63,-1,-1,0,1
3957.63,1,-1,-1,0
3957.63,3,2,1,3
3957.63,5,5,4,5
3957.63,6,5,3,5
3957.63,6,4,3,4
3957.63,7,6,4,5
3957.63,7,6,4,5
3957.63,6,5,5,4
3957.63,5,5,4,3
3957.63,4,3,1,2
3957.63,2,1,-1,0
3957.63,2,0,-3,-3
3957.63,0,0,-3,-2
3957.63,1,0,-2,1
3957.64,3,0,0,6
3957.64,7,1,3,9
3957.64,8,2,2,8
3957.64,8,3,3,8
3957.64,8,2,2,8
3957.64,7,3,1,6
3957.64,5,1,0,3
3957.64,3,2,1,2
3957.64,2,2,1,1
3957.64,2,3,2,2
3957.64,3,4,3,0
3957.64,3,6,3,0
3957.64,1,5,2,-4
3957.64,-1,6,4,-3
3957.64,-1,6,4,-2
3957.64,-1,7,6,-2
3957.64,-3,6,6,-1
3957.64,-2,4,5,-1
3957.65,-2,3,5,0
3957.65,0,1,3,3
3957.65,1,2,3,2
3957.65,2,3,3,2
3957.65,3,3,0,0
3957.65,3,1,-2,-1
3957.65,2,2,0,1
3957.65,6,5,3,4
3957.65,7,6,4,6
3957.65,6,4,5,7
3957.65,7,3,1,4
3957.65,6,3,0,3
3957.65,5,1,-2,0
3957.65,4,1,-4,-1
3957.65,4,3,-2,0
3957.65,7,6,1,2
3957.65,7,6,3,4
3957.66,5,3,4,7
3957.66,4,0,4,9
3957.66,5,1,5,10
3957.66,4,-1,5,10
3957.66,3,-3,0,3
3957.66,0,-4,-3,1
3957.66,1,-1,0,2
3957.66,2,1,1,2
3957.66,3,3,4,4
3957.66,4,5,4,2
3957.66,4,7,4,0
3957.66,0,4,1,-3
3957.66,0,5,4,-2
3957.66,1,8,6,-1
3957.66,1,10,7,-1
3957.66,1,9,6,-2
3957.66,-1,4,2,-4
3957.66,-3,2,0,-4
3957.67,-3,0,0,-2
3957.67,0,2,3,1
3957.67,3,4,4,4
3957.67,5,3,1,2
3957.67,3,2,0,1
3957.67,5,5,2,3
3957.67,5,5,3,5
3957.67,7,5,4,6
3957.67,6,6,6,6
3957.67,5,5,5,5
3957.67,4,4,6,6
3957.67,2,1,3,4
3957.67,1,-1,-1,0
3957.67,0,0,-2,0
3957.67,0,0,-1,0
3957.67,1,0,-2,0
3957.67,2,0,-3,0
3957.68,4,0,1,6
3957.68,7,5,10,15
3957.68,9,6,14,15
3957.68,5,-1,5,9
3957.68,1,-4,0,5
3957.68,1,-4,-3,0
3957.68,0,-3,-6,-3
3957.68,0,-2,-11,-8
3957.68,1,0,-10,-9
3957.68,6,9,-1,0
3957.68,12,19,9,4
3957.68,13,19,12,5
3957.68,10,17,12,5
3957.68,6,14,13,4
3957.68,2,10,8,0
3957.68,-2,3,3,-5
3957.68,-5,0,1,-4
3957.69,-5,0,0,-4
3957.69,-4,-1,0,-1
3957.69,-1,0,0,0
3957.69,0,0,0,0
3957.69,1,1,1,2
3957.69,2,2,2,4
3957.69,4,4,5,6
3957.69,5,5,5,5
3957.69,4,3,3,4
3957.69,4,2,3,4
3957.69,4,2,3,4
3957.69,3,2,2,3
3957.69,3,2,1,2
3957.69,2,1,2,3
3957.69,3,2,1,2
3957.69,3,2,1,2
3957.69,3,2,2,3
3957.69,3,0,0,2
3957.7,2,-3,-3,3
3957.7,4,-2,-2,4
3957.7,6,1,0,6
3957.7,7,2,3,8
3957.7,9,6,6,10
3957.7,9,5,3,5
3957.7,6,5,5,4
3957.7,5,4,1,0
3957.7,2,1,0,-1
3957.7,2,2,-1,-4
3957.7,1,5,-1,-5
3957.7,1,8,2,-3
3957.7,3,12,8,0
3957.7,3,12,10,0
3957.7,0,7,4,-3
3957.7,-2,4,2,-3
3957.7,-1,3,1,-3
3957.71,-2,2,2,0
3957.71,-2,1,4,3
3957.71,1,0,2,3
3957.71,1,0,1,3
3957.71,3,2,2,4
3957.71,3,2,1,3
3957.71,4,2,2,4
3957.71,4,3,3,4
3957.71,5,4,4,4
3957.71,5,4,3,3
3957.71,4,2,1,2
3957.71,2,2,2,2
3957.71,3,2,3,4
3957.71,4,3,3,4
3957.71,4,4,2,3
3957.71,4,4,3,3
3957.71,3,2,3,3
3957.71,1,-2,0,4
3957.72,1,-4,-1,4
3957.72,3,-2,0,4
3957.72,1,-4,-3,2
3957.72,2,-2,-4,0
3957.72,4,0,-2,1
3957.72,6,3,-1,1
3957.72,9,9,3,3
3957.72,10,11,3,3
3957.72,10,13,6,4
3957.72,10,15,10,6
3957.72,7,12,8,2
3957.72,3,7,3,-2
3957.72,-1,4,3,-4
3957.72,-3,2,1,-5
3957.72,-3,3,4,-2
3957.72,-1,5,4,-1
3957.72,-1,3,3,-1
3957.73,-3,0,0,-3
3957.73,-3,0,-1,-2
3957.73,0,1,1,1
3957.73,2,3,4,4
3957.73,5,4,4,4
3957.73,5,5,6,6
3957.73,5,4,5,5
3957.73,5,3,2,2
3957.73,2,0,0,1
3957.73,1,0,0,1
3957.73,2,4,6,7
3957.73,5,3,3,4
3957.73,4,1,1,3
3957.73,5,4,1,2
3957.73,4,3,1,2
3957.73,4,4,8,7
3957.73,3,3,7,8
3957.74,0,-4,0,5
3957.74,1,-5,-2,4
3957.74,3,-3,-1,3
3957.74,2,-4,-3,3
3957.74,4,-2,-4,1
3957.74,5,0,-6,-1
3957.74,8,4,-6,-2
3957.74,10,10,2,2
3957.74,11,12,8,6
3957.74,9,12,9,6
3957.74,8,12,11,6
3957.74,7,13,12,5
3957.74,3,10,10,0
3957.74,-2,4,3,-5
3957.74,-7,0,0,-7
3957.74,-9,-2,-2,-7
3957.74,-6,-1,-2,-6
3957.74,-2,2,0,-3
3957.75,-1,1,0,-1
3957.75,0,2,3,3
3957.75,4,6,8,8
3957.75,7,8,11,9
3957.75,6,5,7,6
3957.75,2,0,1,0
3957.75,0,0,-1,0
3957.75,2,2,0,1
3957.75,5,2,-3,0
3957.75,4,3,0,1
3957.75,5,5,3,4
3957.75,6,6,6,7
3957.75,7,6,6,6
3957.75,6,3,0,1
3957.75,3,1,-2,0
3957.75,2,0,-3,-1
3957.75,1,-2,-5,-1
3957.76,2,-2,-3,3
3957.76,6,1,1,7
3957.76,9,4,5,10
3957.76,8,3,6,12
3957.76,11,6,7,11
3957.76,8,2,0,2
3957.76,4,1,-1,0
3957.76,2,1,0,0
3957.76,2,2,2,1
3957.76,2,5,7,4
3957.76,4,8,8,3
3957.76,2,8,9,2
3957.76,-1,6,9,0
3957.76,-4,0,1,-5
3957.76,-5,0,-3,-9
3957.76,-4,4,0,-5
3957.76,-1,5,3,-2
3957.76,0,2,-2,-5
3957.77,-1,1,0,-1
3957.77,3,6,6,5
3957.77,5,7,9,7
3957.77,5,6,9,7
3957.77,4,4,6,6
3957.77,3,2,5,5
3957.77,3,2,5,5
3957.77,2,1,3,2
3957.77,0,-2,0,0
3957.77,0,-3,-3,0
3957.77,2,-1,-5,-2
3957.77,5,2,-4,-1
3957.77,7,6,0,1
3957.77,8,7,3,4
3957.77,9,9,6,7
3957.77,9,7,5,6
3957.77,6,1,0,4
3957.78,3,-2,-4,0
3957.78,3,-2,-4,1
3957.78,4,0,-1,5
3957.78,7,2,0,5
3957.78,9,4,1,5
3957.78,8,4,1,4
3957.78,6,6,2,2
3957.78,5,6,5,5
3957.78,5,8,12,10
3957.78,5,7,9,5
3957.78,0,2,2,-3
3957.78,-3,1,0,-6
3957.78,-4,3,3,-4
3957.78,-3,5,6,-2
3957.78,-3,4,4,-3
3957.78,-4,2,3,-3
3957.78,-5,0,0,-3
3957.78,-1,0,0,-2
3957.79,1,1,0,0
3957.79,2,4,4,3
3957.79,4,3,1,2
3957.79,4,3,2,3
3957.79,7,6,4,5
3957.79,7,6,4,5
3957.79,7,8,9,9
3957.79,6,4,7,7
3957.79,5,3,3,5
3957.79,3,2,2,3
3957.79,1,1,2,2
3957.79,0,-1,0,0
3957.79,-2,-3,-3,-1
3957.79,1,0,0,3
3957.79,5,4,2,4
3957.79,6,4,2,3
3957.79,4,1,2,6
3957.8,5,0,2,7
3957.8,6,1,1,5
3957.8,3,-1,-2,0
3957.8,2,-3,-4,0
3957.8,2,0,-1,3
3957.8,5,2,1,5
3957.8,9,6,3,6
3957.8,10,10,6,6
3957.8,8,9,6,3
3957.8,6,9,5,2
3957.8,4,8,5,0
3957.8,2,8,4,-2
3957.8,0,6,4,-3
3957.8,-2,5,2,-5
3957.8,-4,3,2,-5
3957.8,-3,3,2,-4
3957.8,-1,3,2,-2
3957.81,-1,2,0,-1
3957.81,0,2,1,0
3957.81,1,2,3,2
3957.81,3,3,4,4
3957.81,3,4,3,4
3957.81,3,2,4,5
3957.81,4,3,3,4
3957.81,3,1,1,3
3957.81,4,4,3,5
3957.81,6,5,4,5
3957.81,5,4,1,2
3957.81,3,2,2,3
3957.81,2,1,1,2
3957.81,3,1,0,1
3957.81,3,2,-1,0
3957.81,3,2,0,0
3957.81,3,2,0,3
3957.81,4,0,0,6
3957.82,6,0,1,8
3957.82,7,0,-1,5
3957.82,5,-3,-4,4
3957.82,7,5,7,12
3957.82,10,6,7,10
3957.82,6,4,5,5
3957.82,3,4,6,4
3957.82,1,1,1,0
3957.82,0,0,-2,-4
3957.82,0,0,-6,-8
3957.82,0,5,-2,-7
3957.82,3,12,6,0
3957.82,5,15,14,5
3957.82,5,12,11,1
3957.82,0,6,4,-3
3957.82,-2,3,2,-4
3957.82,-2,2,1,-2
3957.83,-2,0,0,-2
3957.83,-1,0,-1,-2
3957.83,0,2,1,1
3957.83,4,6,7,6
3957.83,5,5,8,7
3957.83,5,3,5,5
3957.83,2,2,3,3
3957.83,3,1,2,3
3957.83,2,0,0,1
3957.83,2,0,-1,1
3957.83,3,2,2,4
3957.83,6,5,5,6
3957.83,6,4,4,4
3957.83,5,3,2,3
3957.83,4,3,2,2
3957.83,3,2,1,2
3957.83,1,-2,-2,1
3957.83,1,-4,-5,1
3957.84,4,-2,-4,3
3957.84,6,1,-2,3
3957.84,7,4,2,6
3957.84,9,4,1,6
3957.84,7,2,0,6
3957.84,9,7,5,6
3957.84,8,8,9,7
3957.84,5,6,9,5
3957.84,2,2,3,1
3957.84,1,5,3,-1
3957.84,0,4,2,-4
3957.84,-2,4,1,-4
3957.84,-3,5,3,-5
3957.84,-2,6,7,0
3957.84,0,8,9,1
3957.84,0,4,3,-2
3957.84,-3,0,-1,-6
3957.85,-5,0,0,-1
3957.85,-1,0,0,0
3957.85,1,2,2,3
3957.85,4,4,3,4
3957.85,5,4,2,4
3957.85,6,7,7,8
3957.85,7,6,9,9
3957.85,7,4,4,5
3957.85,4,1,0,1
3957.85,3,2,0,1
3957.85,3,2,0,0
3957.85,2,0,0,0
3957.85,3,1,-1,0
3957.85,5,4,0,0
3957.85,4,3,0,0
3957.85,3,2,-1,1
3957.85,2,0,0,5
3957.85,6,2,4,9
3957.86,7,5,10,13
3957.86,6,1,7,11
3957.86,3,-4,-1,2
3957.86,0,-3,-1,2
3957.86,2,0,0,3
3957.86,3,2,2,3
3957.86,3,2,3,3
3957.86,3,3,1,1
3957.86,4,5,2,0
3957.86,3,7,2,-2
3957.86,2,8,2,-4
3957.86,0,7,2,-5
3957.86,0,8,3,-2
3957.86,1,9,5,-1
3957.86,2,7,4,-1
3957.86,1,6,5,0
3957.86,0,5,3,0
3957.87,0,1,1,1
3957.87,0,0,0,1
3957.87,2,1,1,2
3957.87,3,2,2,4
3957.87,4,4,6,6
3957.87,5,5,4,6
3957.87,5,4,3,3
3957.87,3,1,0,2
3957.87,3,2,1,3
3957.87,4,3,3,3
3957.87,3,3,4,5
3957.87,4,3,4,4
3957.87,3,1,2,2
3957.87,0,0,0,0
3957.87,0,0,0,0
3957.87,0,-2,-2,0
3957.87,2,-4,-7,0
3957.88,3,-4,-9,-1
3957.88,6,0,-6,1
3957.88,10,6,0,7
3957.88,17,14,10,15
3957.88,18,16,14,15
3957.88,14,11,9,8
3957.88,6,5,3,2
3957.88,1,1,0,-1
3957.88,-1,0,0,-1
3957.88,0,2,1,-1
3957.88,-1,4,2,-2
3957.88,-2,4,4,-2
3957.88,-1,5,6,-1
3957.88,-2,5,7,0
3957.88,-3,3,6,-1
3957.88,-4,1,2,-3
3957.88,-4,0,2,-2
3957.89,-3,0,1,0
3957.89,-1,0,1,1
3957.89,1,2,1,0
3957.89,3,5,4,3
3957.89,5,6,4,4
3957.89,6,6,2,1
3957.89,5,3,0,0
3957.89,4,2,0,1
3957.89,4,0,-2,1
3957.89,6,4,0,3
3957.89,9,8,6,8
3957.89,10,7,4,6
3957.89,7,7,9,9
3957.89,6,5,10,10
3957.89,3,0,5,6
3957.89,0,-3,0,1
3957.89,-3,-7,-2,1
3957.89,-2,-7,-2,4
3957.9,0,-5,-3,4
3957.9,3,-4,-6,1
3957.9,5,-2,-8,0
3957.9,8,4,-1,2
3957.9,10,9,3,5
3957.9,11,14,9,7
3957.9,9,12,10,7
3957.9,7,7,4,1
3957.9,2,3,1,-1
3957.9,0,4,3,-1
3957.9,-1,5,5,0
3957.9,0,6,5,-2
3957.9,-1,5,3,-4
3957.9,-2,4,2,-5
3957.9,-4,3,0,-5
3957.9,-3,3,1,-3
3957.9,-1,4,3,0
3957.91,1,4,5,4
3957.91,4,5,5,4
3957.91,4,3,3,3
3957.91,3,3,4,5
3957.91,5,5,8,8
3957.91,6,5,6,6
3957.91,4,3,2,2
3957.91,1,0,0,0
3957.91,0,-1,1,2
3957.91,0,0,2,4
3957.91,4,2,1,3
3957.91,4,0,-1,0
3957.91,3,0,-3,0
3957.91,3,1,-1,1
3957.91,4,3,2,4
3957.91,7,4,1,3
3957.91,5,1,0,3
3957.91,6,0,-1,5
3957.92,5,0,-1,3
3957.92,5,0,-1,4
3957.92,7,0,0,7
3957.92,10,6,4,8
3957.92,10,7,6,7
3957.92,7,5,4,4
3957.92,4,4,3,2
3957.92,3,4,4,1
3957.92,3,5,5,1
3957.92,2,5,2,-2
3957.92,-1,4,1,-5
3957.92,-2,4,3,-4
3957.92,-1,6,2,-4
3957.92,0,6,3,-3
3957.92,0,6,3,-3
3957.92,0,5,5,0
3957.92,0,3,4,0
3957.93,-1,1,3,3
3957.93,1,3,6,5
3957.93,2,4,8,6
3957.93,2,1,4,4
3957.93,1,-2,-3,0
3957.93,1,0,-3,-1
3957.93,4,3,0,2
3957.93,6,5,2,4
3957.93,7,6,3,5
3957.93,7,6,5,5
3957.93,7,5,5,5
3957.93,5,5,4,5
3957.93,4,2,1,1
3957.93,2,0,-2,-1
3957.93,2,1,-2,0
3957.93,2,1,-2,0
3957.93,2,-1,-2,3
3957.93,4,0,1,6
3957.94,6,2,4,10
3957.94,7,2,7,12
3957.94,8,4,8,12
3957.94,6,0,1,4
3957.94,2,-1,-2,0
3957.94,2,0,-1,0
3957.94,2,3,0,0
3957.94,2,3,0,0
3957.94,4,7,0,-2
3957.94,3,9,5,1
3957.94,5,11,11,3
3957.94,3,9,9,2
3957.94,0,7,7,0
3957.94,-1,5,5,-2
3957.94,-3,1,1,-4
3957.94,-4,0,-1,-6
3957.94,-5,-1,-1,-4
3957.95,-2,0,0,0
3957.95,1,3,3,3
3957.95,4,5,5,5
3957.95,5,5,4,5
3957.95,4,0,0,3
3957.95,4,2,2,5
3957.95,7,3,1,3
3957.95,7,4,2,4
3957.95,8,6,3,4
3957.95,7,5,2,3
3957.95,5,4,0,1
3957.95,3,2,0,0
3957.95,3,4,3,2
3957.95,2,3,5,3
3957.95,1,3,7,6
3957.95,0,-1,1,2
3957.95,-2,-6,-4,1
3957.96,0,-4,-3,3
3957.96,2,-3,-3,3
3957.96,4,-4,-6,3
3957.96,8,1,-2,4
3957.96,12,7,2,6
3957.96,13,10,5,6
3957.96,11,12,8,7
3957.96,9,10,10,7
3957.96,5,7,7,5
3957.96,2,6,6,1
3957.96,-1,4,6,0
3957.96,-2,3,7,0
3957.96,-4,2,5,-1
3957.96,-5,0,1,-6
3957.96,-7,0,0,-7
3957.96,-7,0,-2,-7
3957.96,-5,0,-2,-5
3957.96,-2,1,-1,-2
3957.97,2,4,3,3
3957.97,6,9,8,7
3957.97,8,10,8,7
3957.97,6,5,4,4
3957.97,4,2,0,2
3957.97,5,4,2,3
3957.97,5,5,2,3
3957.97,5,5,2,3
3957.97,5,5,2,3
3957.97,5,3,2,3
3957.97,3,1,0,2
3957.97,2,-1,-1,1
3957.97,4,-1,-4,0
3957.97,4,1,0,3
3957.97,6,5,4,5
3957.97,6,2,2,6
3957.97,5,0,0,6
3957.98,7,1,0,6
3957.98,7,1,0,6
3957.98,6,0,0,4
3957.98,6,1,0,4
3957.98,5,2,3,6
3957.98,6,5,4,4
3957.98,4,3,3,1
3957.98,1,2,1,0
3957.98,0,3,2,-1
3957.98,1,7,5,0
3957.98,1,7,4,-2
3957.98,0,6,4,-4
3957.98,-2,4,2,-3
3957.98,-1,5,3,-4
3957.98,0,7,7,1
3957.98,1,7,7,1
3957.98,0,5,6,1
3957.98,0,3,5,2
3957.99,0,2,4,2
3957.99,0,0,1,1
3957.99,0,0,1,1
3957.99,1,0,2,3
3957.99,3,3,1,3
3957.99,4,1,-2,0
3957.99,4,1,-2,0
3957.99,4,3,0,2
3957.99,7,7,3,5
3957.99,8,7,7,7
3957.99,8,7,6,6
3957.99,5,4,2,2
3957.99,2,0,0,1
3957.99,2,1,0,1
3957.99,2,0,0,2
3957.99,2,-2,-2,3
3957.99,3,-2,0,5
3958,5,0,0,7
3958,5,0,0,7
3958,6,1,2,7
3958,7,3,2,6
3958,6,4,2,4
3958,4,2,0,0
3958,2,3,1,0
3958,2,4,2,0
3958,3,8,6,1
3958,4,9,7,0
3958,2,9,8,0
3958,0,7,7,-2
3958,-2,4,3,-3
3958,-3,3,0,-6
3958,-4,2,-1,-7
3958,-3,2,0,-4
3958,-1,2,1,0
3958,1,3,2,4
3958.01,4,4,4,5
3958.01,6,5,3,3
3958.01,4,3,4,5
3958.01,4,4,5,6
3958.01,5,4,5,4
3958.01,5,4,4,5
3958.01,4,3,2,2
3958.01,2,0,0,0
3958.01,0,0,0,1
3958.01,1,0,0,1
3958.01,4,1,-2,0
3958.01,5,5,1,3
3958.01,7,8,5,5
3958.01,6,5,3,3
3958.01,4,2,1,4
3958.01,4,1,2,6
3958.01,6,2,4,7
3958.02,5,1,3,6
3958.02,3,-1,0,4
3958.02,4,0,1,4
3958.02,3,0,2,4
3958.02,3,0,1,2
3958.02,0,0,0,0
3958.02,0,-2,-1,1
3958.02,2,1,0,1
3958.02,5,6,3,1
3958.02,6,8,4,0
3958.02,5,10,5,0
3958.02,5,11,5,-2
3958.02,1,9,3,-4
3958.02,0,6,2,-4
3958.02,0,6,4,-3
3958.02,-1,4,4,-2
3958.02,-2,2,2,-1
3958.03,0,2,2,0
3958.03,2,3,3,2
3958.03,2,2,3,2
3958.03,2,4,5,5
3958.03,5,5,5,6
3958.03,4,4,5,4
3958.03,3,2,3,3
3958.03,2,1,2,3
3958.03,2,0,1,3
3958.03,3,0,0,3
3958.03,4,2,1,3
3958.03,4,2,0,1
3958.03,3,1,0,1
3958.03,4,3,2,3
3958.03,5,4,3,4
3958.03,4,0,1,6
3958.03,4,-2,-1,5
3958.03,4,0,0,5
3958.04,5,0,1,7
3958.04,6,0,0,6
3958.04,6,1,0,4
3958.04,6,2,0,3
3958.04,7,7,5,4
3958.04,5,5,5,4
3958.04,4,4,4,2
3958.04,2,4,2,0
3958.04,1,5,2,-2
3958.04,0,4,0,-6
3958.04,-1,3,-1,-8
3958.04,0,6,0,-6
3958.04,3,10,4,-3
3958.04,4,12,8,1
3958.04,3,11,11,4
3958.04,1,6,6,1
3958.04,-1,0,-1,-1
3958.05,0,1,0,0
3958.05,0,3,5,4
3958.05,0,2,6,6
3958.05,0,-1,2,3
3958.05,1,0,3,5
3958.05,3,2,2,3
3958.05,3,1,-1,0
3958.05,2,-1,-4,-2
3958.05,2,0,-5,0
3958.05,5,3,0,5
3958.05,10,9,9,11
3958.05,11,9,10,11
3958.05,7,4,4,5
3958.05,3,1,1,2
3958.05,2,0,0,2
3958.05,0,-2,0,4
3958.05,0,-4,0,6
3958.05,2,-4,-1,4
3958.06,4,-2,-1,6
3958.06,6,0,0,5
3958.06,7,1,0,3
3958.06,5,2,0,2
3958.06,5,5,5,6
3958.06,8,11,11,8
3958.06,8,10,7,4
3958.06,4,6,3,-2
3958.06,-2,1,0,-4
3958.06,-2,4,3,-2
3958.06,0,6,5,-2
3958.06,-1,6,5,-3
3958.06,-1,6,3,-4
3958.06,-3,2,1,-5
3958.06,-3,3,1,-3
3958.06,0,4,3,-1
3958.06,0,2,3,1
3958.07,0,0,0,1
3958.07,1,0,1,3
3958.07,4,2,4,6
3958.07,7,5,5,7
3958.07,8,7,6,9
3958.07,8,5,4,5
3958.07,6,2,0,2
3958.07,4,1,-1,0
3958.07,3,2,-1,0
3958.07,4,4,0,2
3958.07,5,4,2,4
3958.07,6,4,2,3
3958.07,4,4,3,4
3958.07,6,4,3,4
3958.07,5,1,0,2
3958.07,2,-2,-2,2
3958.07,3,-2,-2,4
3958.07,5,0,0,5
3958.08,5,0,0,6
3958.08,6,0,0,5
3958.08,7,3,3,6
3958.08,7,5,4,5
3958.08,5,4,4,2
3958.08,2,2,1,0
3958.08,1,2,1,0
3958.08,1,4,2,-1
3958.08,1,7,3,-1
3958.08,1,8,5,-1
3958.08,0,5,4,-2
3958.08,-1,6,5,-2
3958.08,-1,6,6,0
3958.08,-1,5,6,0
3958.08,0,5,4,0
3958.08,-1,2,2,0
3958.08,0,1,0,0
3958.09,1,0,0,1
3958.09,2,3,1,3
3958.09,5,5,3,3
3958.09,5,4,2,2
3958.09,3,2,1,3
3958.09,3,4,6,6
3958.09,5,5,9,9
3958.09,5,4,6,6
3958.09,3,0,-1,1
3958.09,1,-3,-7,-3
3958.09,2,0,-6,-3
3958.09,3,2,-1,0
3958.09,7,8,5,6
3958.09,9,11,10,9
3958.09,7,6,7,8
3958.09,4,0,1,4
3958.09,2,-3,-3,0
3958.09,0,-5,-3,0
3958.1,0,-5,-2,4
3958.1,4,0,1,8
3958.1,9,3,2,8
3958.1,9,4,2,4
3958.1,6,5,2,2
3958.1,4,5,5,3
3958.1,4,6,5,1
3958.1,2,6,4,-1
3958.1,0,5,4,-2
3958.1,-1,5,4,-3
3958.1,-2,5,6,0
3958.1,0,8,10,2
3958.1,0,5,6,0
3958.1,-1,2,0,-5
3958.1,-2,0,-5,-8
3958.1,-2,0,-6,-7
3958.1,1,3,-1,-1
3958.11,5,6,3,2
3958.11,8,9,6,7
3958.11,9,8,6,7
3958.11,7,6,5,6
3958.11,4,4,5,5
3958.11,3,2,3,4
3958.11,3,3,4,4
3958.11,4,3,4,4
3958.11,2,0,1,2
3958.11,2,1,0,1
3958.11,2,2,2,3
3958.11,3,2,2,2
3958.11,3,2,1,1
3958.11,2,0,-1,0
3958.11,0,-3,-3,1
3958.11,2,-1,-1,4
3958.11,5,0,0,7
3958.12,6,1,3,9
3958.12,8,2,3,8
3958.12,8,4,5,9
3958.12,7,3,4,6
3958.12,5,3,6,6
3958.12,5,2,1,0
3958.12,2,0,-2,-3
3958.12,1,3,-1,-3
3958.12,1,5,0,-3
3958.12,2,8,4,-2
3958.12,3,10,6,-1
3958.12,2,10,6,0
3958.12,2,9,6,-1
3958.12,0,7,6,0
3958.12,-1,5,6,0
3958.12,-2,2,5,2
3958.12,-1,0,2,1
3958.12,0,0,0,-1
3958.13,0,0,1,0
3958.13,1,0,0,0
3958.13,2,2,1,2
3958.13,5,5,3,4
3958.13,6,6,5,6
3958.13,5,4,4,4
3958.13,3,2,2,3
3958.13,3,3,3,5
3958.13,4,3,2,3
3958.13,5,3,0,0
3958.13,3,2,0,1
3958.13,3,3,1,1
3958.13,3,2,0,2
3958.13,3,2,1,3
3958.13,2,-1,0,6
3958.13,4,-3,-1,5
3958.13,4,-2,-2,4
3958.14,5,-1,0,7
3958.14,9,3,2,8
3958.14,9,4,2,6
3958.14,8,5,2,4
3958.14,7,4,0,0
3958.14,5,4,-1,0
3958.14,5,6,1,0
3958.14,5,9,5,0
3958.14,3,9,7,0
3958.14,1,6,4,-1
3958.14,0,6,3,-4
3958.14,-1,5,4,-3
3958.14,-1,5,5,-2
3958.14,-1,5,5,-1
3958.14,-2,5,4,-2
3958.14,-3,0,-2,-5
3958.14,-2,0,-3,-3
3958.15,0,1,0,0
3958.15,2,2,2,3
3958.15,5,5,5,7
3958.15,8,8,7,9
3958.15,10,10,9,10
3958.15,9,11,14,11
3958.15,4,3,8,6
3958.15,-1,-2,1,1
3958.15,-2,-3,-1,0
3958.15,-2,-4,-3,-1
3958.15,-1,-2,-2,-1
3958.15,0,-1,-1,0
3958.15,2,0,0,2
3958.15,6,5,3,4
3958.15,7,5,3,5
3958.15,5,0,-1,4
3958.15,4,-1,-1,5
3958.15,6,1,2,8
3958.16,7,1,1,8
3958.16,8,3,1,6
3958.16,7,3,1,5
3958.16,7,4,2,4
3958.16,6,5,4,4
3958.16,6,7,6,4
3958.16,4,5,4,0
3958.16,1,4,2,-2
3958.16,-1,5,3,-2
3958.16,-1,7,7,0
3958.16,-1,7,7,0
3958.16,-2,3,3,-3
3958.16,-3,0,0,-5
3958.16,-4,0,-3,-6
3958.16,-1,1,-2,-4
3958.16,0,2,-1,-1
3958.16,4,6,2,2
3958.17,7,9,7,7
3958.17,9,10,9,7
3958.17,8,7,6,5
3958.17,5,4,4,3
3958.17,4,3,5,4
3958.17,3,3,6,5
3958.17,2,0,3,4
3958.17,2,1,3,4
3958.17,0,0,2,2
3958.17,0,-1,0,0
3958.17,0,-2,-2,-1
3958.17,0,-2,-5,-2
3958.17,1,0,-3,0
3958.17,4,4,0,2
3958.17,6,3,2,7
3958.17,8,1,1,8
3958.17,9,2,0,7
3958.17,9,2,1,7
3958.18,8,2,0,6
3958.18,7,5,3,5
3958.18,6,5,6,6
3958.18,6,6,4,3
3958.18,4,4,1,0
3958.18,1,4,0,-2
3958.18,1,4,2,-1
3958.18,1,6,3,-1
3958.18,0,6,4,0
