Program Time [s],data 0,data 1,data 2,data 3
4022.84,1,7,3,-3
4022.84,0,8,5,-3
4022.84,-1,7,4,-4
4022.84,-1,5,0,-7
4022.84,-2,7,3,-5
4022.84,-1,7,5,-3
4022.84,-1,6,5,-1
4022.84,-2,4,6,2
4022.84,0,3,6,4
4022.84,1,2,4,2
4022.84,0,0,1,1
4022.84,0,0,0,1
4022.85,1,0,1,2
4022.85,3,1,2,4
4022.85,6,4,4,5
4022.85,6,4,3,5
4022.85,4,3,2,3
4022.85,4,2,2,4
4022.85,5,4,3,5
4022.85,4,2,1,3
4022.85,4,3,2,2
4022.85,3,2,0,1
4022.85,2,1,0,1
4022.85,2,0,-1,2
4022.85,2,-3,-3,3
4022.85,4,-2,-2,5
4022.85,7,0,0,6
4022.85,7,1,1,9
4022.85,9,4,5,10
4022.86,9,4,5,8
4022.86,7,5,5,6
4022.86,5,4,4,2
4022.86,3,3,1,0
4022.86,0,2,0,-1
4022.86,1,4,3,-1
4022.86,0,4,0,-6
4022.86,0,7,0,-8
4022.86,0,8,1,-6
4022.86,1,12,6,-1
4022.86,2,11,9,0
4022.86,1,9,8,0
4022.86,0,7,8,0
4022.86,-2,2,3,0
4022.86,-3,-1,0,-2
4022.86,-3,-2,-1,0
4022.86,0,0,0,1
4022.86,2,2,2,3
4022.87,5,4,2,5
4022.87,6,4,2,4
4022.87,5,4,3,5
4022.87,6,5,3,4
4022.87,6,4,2,4
4022.87,5,4,4,5
4022.87,6,4,4,4
4022.87,4,2,2,3
4022.87,3,2,3,3
4022.87,3,2,2,2
4022.87,1,0,0,1
4022.87,0,-4,-3,2
4022.87,1,-4,-1,6
4022.87,4,-2,1,8
4022.87,6,0,1,8
4022.87,7,1,3,9
4022.87,7,2,2,7
4022.88,6,1,1,3
4022.88,5,4,2,3
4022.88,5,4,2,2
4022.88,2,1,-1,-2
4022.88,3,5,1,-1
4022.88,4,9,6,1
4022.88,3,10,7,0
4022.88,2,11,9,0
4022.88,0,8,8,-1
4022.88,0,6,5,-3
4022.88,-4,2,1,-6
4022.88,-5,1,-1,-8
4022.88,-4,0,-3,-6
4022.88,-2,1,-3,-4
4022.88,3,7,4,2
4022.88,6,10,10,9
4022.88,7,7,8,7
4022.89,5,4,5,5
4022.89,5,3,3,4
4022.89,4,2,1,1
4022.89,1,0,0,1
4022.89,1,0,0,2
4022.89,2,0,0,3
4022.89,4,2,3,6
4022.89,5,3,2,4
4022.89,4,1,0,1
4022.89,3,2,1,3
4022.89,4,3,2,3
4022.89,4,3,2,4
4022.89,2,-3,-2,3
4022.89,2,-4,-3,4
4022.89,4,-1,0,6
4022.89,7,0,1,8
4022.89,8,1,1,8
4022.9,9,3,2,7
4022.9,7,3,2,4
4022.9,5,4,3,4
4022.9,4,5,4,3
4022.9,4,6,5,2
4022.9,4,7,4,0
4022.9,1,5,3,-2
4022.9,0,6,3,-4
4022.9,-1,6,4,-4
4022.9,-1,7,3,-5
4022.9,-2,5,3,-5
4022.9,-2,4,2,-3
4022.9,-1,5,3,-1
4022.9,0,4,2,0
4022.9,0,3,2,0
4022.9,2,4,3,1
4022.9,3,3,3,3
4022.9,3,2,3,4
4022.91,4,3,3,4
4022.91,4,3,2,3
4022.91,4,2,2,3
4022.91,4,2,2,3
4022.91,4,2,1,3
4022.91,4,2,1,4
4022.91,6,4,3,5
4022.91,5,4,3,4
4022.91,5,2,2,4
4022.91,4,2,2,3
4022.91,3,2,1,2
4022.91,2,0,-1,1
4022.91,0,-4,-4,2
4022.91,2,-4,-2,4
4022.91,6,0,0,6
4022.91,5,0,0,8
4022.91,7,1,3,8
4022.92,7,4,5,8
4022.92,7,4,4,5
4022.92,5,4,2,1
4022.92,2,2,0,0
4022.92,0,2,0,0
4022.92,2,6,2,0
4022.92,4,9,2,-2
4022.92,4,11,6,-2
4022.92,3,12,10,0
4022.92,2,10,9,0
4022.92,0,9,9,0
4022.92,-1,5,7,-1
4022.92,-3,1,2,-4
4022.92,-7,-3,-1,-5
4022.92,-6,-4,-2,-3
4022.92,-1,0,1,1
4022.92,1,2,3,3
4022.92,4,3,4,4
4022.93,4,3,2,3
4022.93,5,4,2,3
4022.93,5,4,2,3
4022.93,5,4,1,4
4022.93,6,5,2,3
4022.93,6,5,4,5
4022.93,6,5,6,6
4022.93,5,3,1,2
4022.93,2,1,0,1
4022.93,2,0,0,0
4022.93,2,0,-1,1
4022.93,2,-1,-2,2
4022.93,1,-5,-4,4
4022.93,5,-2,-4,5
4022.93,7,0,-2,7
4022.93,9,1,0,8
4022.93,11,5,4,9
4022.94,10,7,6,9
4022.94,10,9,9,8
4022.94,6,6,6,4
4022.94,1,2,4,2
4022.94,0,1,2,1
4022.94,0,2,0,-4
4022.94,-1,4,1,-4
4022.94,-1,6,4,-3
4022.94,-1,6,5,-2
4022.94,-3,5,4,-3
4022.94,-3,4,3,-3
4022.94,-3,3,3,-2
4022.94,-1,5,4,0
4022.94,0,5,5,1
4022.94,0,4,2,0
4022.94,0,2,0,-1
4022.94,1,3,2,1
4022.94,3,5,4,3
4022.95,4,4,4,4
4022.95,3,1,0,2
4022.95,4,0,-3,0
4022.95,4,0,-4,1
4022.95,6,2,-1,3
4022.95,9,6,5,9
4022.95,11,10,8,10
4022.95,10,7,5,7
4022.95,8,5,3,3
4022.95,4,3,0,1
4022.95,2,1,2,2
4022.95,0,-3,0,4
4022.95,0,-5,-2,5
4022.95,3,-3,-1,5
4022.95,4,-2,0,6
4022.95,4,-2,0,6
4022.95,5,0,2,7
4022.96,5,2,3,7
4022.96,7,5,5,6
4022.96,5,4,3,1
4022.96,1,2,0,-1
4022.96,1,3,0,-2
4022.96,2,6,1,-2
4022.96,3,9,4,-2
4022.96,3,11,4,-4
4022.96,0,9,3,-5
4022.96,0,9,4,-4
4022.96,0,9,6,-1
4022.96,0,8,7,0
4022.96,0,6,4,-1
4022.96,-2,1,3,0
4022.96,-1,2,5,3
4022.96,0,2,6,4
4022.96,1,1,3,3
4022.96,0,-1,0,0
4022.97,1,0,0,1
4022.97,2,1,0,2
4022.97,3,1,0,2
4022.97,5,3,0,2
4022.97,6,4,1,3
4022.97,6,5,3,5
4022.97,6,6,5,6
4022.97,6,7,8,8
4022.97,6,3,5,5
4022.97,3,0,0,2
4022.97,1,-2,-2,0
4022.97,0,-5,-5,1
4022.97,1,-5,-3,3
4022.97,4,-2,0,7
4022.97,7,0,2,9
4022.97,10,3,2,8
4022.97,8,4,3,7
4022.98,7,4,1,5
4022.98,6,4,3,4
4022.98,5,4,3,1
4022.98,3,4,3,1
4022.98,3,6,4,0
4022.98,3,8,5,0
4022.98,0,7,6,-1
4022.98,-1,8,7,-1
4022.98,-1,6,6,-2
4022.98,-2,6,6,-3
4022.98,-4,3,3,-5
4022.98,-5,0,0,-5
4022.98,-4,0,-1,-5
4022.98,-2,0,-1,-2
4022.98,1,3,0,0
4022.98,3,4,2,2
4022.98,4,4,2,3
4022.99,7,7,5,6
4022.99,8,7,4,6
4022.99,8,7,3,5
4022.99,7,5,3,3
4022.99,5,3,0,2
4022.99,4,4,1,3
4022.99,5,4,3,5
4022.99,6,3,2,4
4022.99,4,2,1,2
4022.99,3,1,1,2
4022.99,2,1,2,3
4022.99,2,0,1,4
4022.99,1,-3,0,5
4022.99,2,-4,-2,4
4022.99,3,-2,0,5
4022.99,3,-3,0,6
4022.99,6,0,4,9
4022.99,7,3,5,9
4023,7,2,2,5
4023,5,2,0,0
4023,3,4,1,0
4023,3,4,0,0
4023,4,8,4,0
4023,3,9,5,0
4023,3,11,8,0
4023,1,10,8,-1
4023,0,7,4,-5
4023,-1,6,3,-5
4023,-4,4,4,-3
4023,-2,5,4,0
4023,-2,2,4,0
4023,-1,0,1,0
4023,0,0,0,0
4023,1,1,1,1
4023,1,1,2,3
4023.01,4,3,3,4
4023.01,5,5,4,5
4023.01,6,4,2,3
4023.01,4,3,3,4
4023.01,4,3,4,5
4023.01,5,2,2,4
4023.01,3,1,2,4
4023.01,3,0,0,2
4023.01,2,0,1,3
4023.01,3,1,0,2
4023.01,3,1,0,1
4023.01,3,0,-1,1
4023.01,3,-3,-6,0
4023.01,5,-1,-5,3
4023.01,9,3,0,7
4023.01,10,3,0,8
4023.01,12,6,2,8
4023.01,11,7,4,6
4023.02,10,9,9,8
4023.02,7,8,8,6
4023.02,3,4,5,2
4023.02,0,1,3,0
4023.02,0,3,3,-1
4023.02,-1,3,2,-5
4023.02,-3,3,0,-6
4023.02,-4,3,2,-5
4023.02,-2,6,4,-3
4023.02,-1,6,4,-2
4023.02,-1,5,5,-1
4023.02,-1,5,6,0
4023.02,-1,2,3,1
4023.02,0,1,2,1
4023.02,1,1,2,1
4023.02,2,2,0,1
4023.02,1,1,1,2
4023.03,4,3,2,3
4023.03,5,4,3,5
4023.03,7,5,3,4
4023.03,5,4,2,4
4023.03,6,5,3,4
4023.03,4,4,4,5
4023.03,5,3,3,4
4023.03,4,2,2,3
4023.03,2,1,0,1
4023.03,2,1,1,2
4023.03,2,0,0,2
4023.03,1,-2,-1,3
4023.03,2,-3,-1,6
4023.03,4,-2,0,6
4023.03,6,-1,0,6
4023.03,6,-1,-1,6
4023.03,7,1,0,6
4023.04,8,5,4,7
4023.04,9,8,8,8
4023.04,7,5,3,3
4023.04,3,3,1,0
4023.04,2,3,0,-2
4023.04,1,4,0,-4
4023.04,1,6,2,-4
4023.04,1,9,5,-3
4023.04,1,11,8,-1
4023.04,1,11,9,0
4023.04,0,7,6,-2
4023.04,-3,4,4,-3
4023.04,-3,2,3,-1
4023.04,-4,0,2,0
4023.04,-1,1,5,3
4023.04,0,0,4,3
4023.04,0,0,2,2
4023.04,1,0,0,1
4023.05,2,-1,-2,0
4023.05,3,2,-1,0
4023.05,6,5,1,2
4023.05,7,6,4,6
4023.05,8,8,5,7
4023.05,8,6,5,5
4023.05,6,3,2,4
4023.05,4,2,1,3
4023.05,4,1,0,2
4023.05,3,0,0,2
4023.05,3,0,0,4
4023.05,4,-1,0,5
4023.05,4,-3,-2,6
4023.05,5,-2,-2,6
4023.05,5,-1,0,6
4023.05,6,0,2,8
4023.05,8,3,2,7
4023.06,8,2,0,2
4023.06,6,4,0,1
4023.06,6,6,2,2
4023.06,5,7,4,1
4023.06,3,6,3,0
4023.06,3,9,6,0
4023.06,2,10,9,-1
4023.06,0,9,7,-3
4023.06,-3,5,4,-5
4023.06,-4,4,3,-5
4023.06,-5,2,0,-7
4023.06,-3,2,1,-4
4023.06,-3,2,3,-1
4023.06,0,3,5,4
4023.06,2,4,7,5
4023.06,2,3,5,5
4023.06,2,2,3,3
4023.06,3,2,2,2
4023.07,2,1,1,2
4023.07,3,2,-1,0
4023.07,2,0,0,2
4023.07,5,3,2,4
4023.07,6,4,2,4
4023.07,6,4,2,5
4023.07,7,5,4,6
4023.07,7,5,3,4
4023.07,4,2,1,2
4023.07,4,1,0,2
4023.07,3,0,-1,2
4023.07,2,-3,-1,5
4023.07,4,0,2,9
4023.07,7,0,3,9
4023.07,5,-2,1,7
4023.07,6,0,1,5
4023.07,3,-1,0,3
4023.08,4,1,0,2
4023.08,4,4,2,2
4023.08,5,5,3,2
4023.08,4,5,1,0
4023.08,5,9,4,0
4023.08,3,9,5,0
4023.08,3,11,7,-1
4023.08,1,9,5,-3
4023.08,0,6,2,-4
4023.08,-2,5,2,-5
4023.08,-1,5,2,-4
4023.08,0,6,4,-2
4023.08,-1,4,4,1
4023.08,0,4,6,3
4023.08,1,3,6,5
4023.08,0,-1,0,0
4023.08,0,0,0,0
4023.08,0,0,2,3
4023.09,3,3,4,6
4023.09,4,1,0,1
4023.09,3,0,-3,0
4023.09,3,1,-1,0
4023.09,6,5,2,4
4023.09,6,5,3,4
4023.09,6,4,3,4
4023.09,6,4,1,3
4023.09,7,5,2,4
4023.09,7,5,3,4
4023.09,6,2,1,5
4023.09,4,0,0,5
4023.09,5,0,2,8
4023.09,6,1,4,9
4023.09,4,-3,-1,5
4023.09,3,-2,-2,3
4023.09,2,-1,-2,3
4023.1,4,0,-3,1
4023.1,5,1,-3,0
4023.1,5,5,1,0
4023.1,6,9,6,2
4023.1,7,12,9,4
4023.1,6,12,9,2
4023.1,3,9,7,-1
4023.1,-1,6,7,-1
4023.1,-3,5,5,-4
4023.1,-5,3,3,-4
4023.1,-5,1,2,-4
4023.1,-4,1,0,-5
4023.1,-4,-1,-2,-3
4023.1,-2,0,0,0
4023.1,2,3,2,2
4023.1,4,6,7,7
4023.1,5,7,10,9
4023.11,5,5,6,7
4023.11,3,2,4,5
4023.11,2,0,2,3
4023.11,1,0,-1,0
4023.11,1,-1,-4,-1
4023.11,2,0,-4,-1
4023.11,5,3,0,2
4023.11,7,7,4,5
4023.11,8,8,6,7
4023.11,9,8,6,6
4023.11,6,5,5,6
4023.11,3,0,2,5
4023.11,0,-4,-1,5
4023.11,2,-4,-3,3
4023.11,3,-3,-3,4
4023.11,4,0,-1,4
4023.11,6,1,0,4
4023.11,6,2,0,3
4023.12,7,4,1,3
4023.12,7,5,2,2
4023.12,7,6,3,2
4023.12,5,7,4,0
4023.12,5,10,6,0
4023.12,3,11,9,1
4023.12,2,12,11,1
4023.12,0,9,9,0
4023.12,-2,5,5,-5
4023.12,-6,0,0,-7
4023.12,-8,0,0,-7
4023.12,-6,0,1,-2
4023.12,-4,0,0,-1
4023.12,0,0,0,0
4023.12,1,3,3,3
4023.12,3,4,4,4
4023.12,5,4,4,5
4023.13,7,5,4,6
4023.13,7,5,3,4
4023.13,6,2,1,2
4023.13,4,2,0,2
4023.13,4,2,0,1
4023.13,5,3,0,2
4023.13,6,3,0,3
4023.13,6,3,0,3
4023.13,8,5,2,4
4023.13,7,5,4,4
4023.13,6,4,5,6
4023.13,3,0,1,6
4023.13,2,-3,0,4
4023.13,2,-4,-2,4
4023.13,2,-4,-3,3
4023.13,3,-1,0,6
4023.13,6,3,5,8
4023.14,6,5,6,8
4023.14,6,5,7,7
4023.14,4,4,6,5
4023.14,1,3,4,1
4023.14,0,3,3,0
4023.14,0,3,1,-4
4023.14,-1,3,-2,-9
4023.14,-1,5,-2,-9
4023.14,0,7,-1,-8
4023.14,1,12,5,-4
4023.14,3,13,9,0
4023.14,4,10,7,0
4023.14,1,5,4,1
4023.14,1,4,5,3
4023.14,2,5,7,5
4023.14,1,1,3,2
4023.14,0,0,0,0
4023.14,0,-1,-3,-2
4023.15,1,2,0,0
4023.15,4,5,4,4
4023.15,5,5,5,4
4023.15,4,3,3,5
4023.15,6,3,2,4
4023.15,6,4,3,3
4023.15,3,2,3,3
4023.15,1,0,1,3
4023.15,2,0,2,5
4023.15,5,2,0,3
4023.15,3,0,0,2
4023.15,1,-5,-4,2
4023.15,2,-4,-2,5
4023.15,6,0,1,9
4023.15,9,2,2,10
4023.15,10,5,4,9
4023.15,8,3,3,6
4023.16,5,2,2,5
4023.16,4,3,2,3
4023.16,4,4,3,2
4023.16,3,4,3,0
4023.16,2,5,3,-2
4023.16,0,4,2,-3
4023.16,0,6,5,-2
4023.16,0,9,6,-2
4023.16,0,8,5,-3
4023.16,-2,5,2,-5
4023.16,-3,5,2,-4
4023.16,-2,5,4,-1
4023.16,0,3,3,0
4023.16,0,2,1,0
4023.16,1,2,2,1
4023.16,2,2,3,2
4023.16,4,4,4,4
4023.17,5,5,4,6
4023.17,6,5,3,4
4023.17,4,3,2,3
4023.17,3,2,1,2
4023.17,3,1,1,3
4023.17,3,3,3,4
4023.17,5,3,3,4
4023.17,3,1,0,1
4023.17,2,0,0,1
4023.17,2,0,0,1
4023.17,2,0,0,2
4023.17,3,1,3,7
4023.17,4,-1,0,7
4023.17,5,-3,-6,2
4023.17,6,0,-3,5
4023.17,9,2,0,7
4023.17,10,5,5,10
4023.17,11,5,3,6
4023.18,8,5,2,3
4023.18,5,4,1,1
4023.18,4,4,2,1
4023.18,3,5,4,2
4023.18,3,7,7,2
4023.18,1,7,7,0
4023.18,1,8,5,-3
4023.18,-3,4,2,-7
4023.18,-4,4,2,-5
4023.18,-4,3,3,-3
4023.18,-1,5,4,-1
4023.18,-1,3,2,-1
4023.18,-1,2,1,-1
4023.18,0,3,3,1
4023.18,0,3,3,3
4023.18,2,4,5,4
4023.18,5,5,4,4
4023.19,3,1,1,1
4023.19,3,1,1,3
4023.19,4,2,2,4
4023.19,6,5,4,5
4023.19,7,4,4,5
4023.19,5,3,2,3
4023.19,4,1,0,2
4023.19,3,2,2,3
4023.19,5,4,5,6
4023.19,5,4,3,5
4023.19,3,1,0,1
4023.19,0,-4,-4,0
4023.19,0,-6,-5,3
4023.19,4,-3,-3,5
4023.19,7,0,0,7
4023.19,8,1,0,6
4023.19,9,3,0,5
4023.19,10,5,2,6
4023.2,10,9,6,6
4023.2,8,9,8,6
4023.2,5,8,8,4
4023.2,3,6,6,1
4023.2,0,5,4,-1
4023.2,-1,3,1,-5
4023.2,-4,1,0,-6
4023.2,-5,1,0,-4
4023.2,-2,1,-3,-7
4023.2,-1,3,0,-5
4023.2,1,8,4,0
4023.2,3,10,7,2
4023.2,2,6,5,2
4023.2,3,6,6,4
4023.2,4,7,8,6
4023.2,3,4,7,5
4023.2,1,0,4,3
4023.21,0,0,2,2
4023.21,1,0,1,1
4023.21,0,0,0,0
4023.21,1,0,-1,0
4023.21,1,0,-2,0
4023.21,3,2,0,2
4023.21,6,4,1,2
4023.21,7,4,0,2
4023.21,6,4,0,4
4023.21,7,5,4,6
4023.21,6,6,6,8
4023.21,5,1,3,8
4023.21,5,-1,0,6
4023.21,4,-3,-2,3
4023.21,2,-4,-3,3
4023.21,4,-2,-1,5
4023.21,7,2,0,4
4023.21,8,4,0,3
4023.22,7,5,0,0
4023.22,5,4,0,0
4023.22,5,7,5,3
4023.22,6,10,8,3
4023.22,5,11,8,1
4023.22,2,8,6,-2
4023.22,-1,6,4,-4
4023.22,-3,4,4,-3
4023.22,-1,6,5,-3
4023.22,-3,4,4,-3
4023.22,-3,3,3,-4
4023.22,-4,1,1,-3
4023.22,-2,1,2,1
4023.22,1,4,5,3
4023.22,2,3,5,3
4023.22,2,4,7,5
4023.22,2,2,4,4
4023.23,2,1,2,3
4023.23,2,1,1,2
4023.23,2,0,-1,1
4023.23,2,0,-2,1
4023.23,3,1,-1,2
4023.23,5,2,-1,2
4023.23,7,4,1,3
4023.23,8,6,3,5
4023.23,8,7,4,6
4023.23,7,6,5,6
4023.23,6,3,5,6
4023.23,2,-3,-1,4
4023.23,3,-5,-5,1
4023.23,4,0,-2,5
4023.23,4,0,1,8
4023.23,7,3,4,9
4023.23,7,2,3,7
4023.23,6,2,2,4
4023.24,4,3,2,2
4023.24,1,2,2,0
4023.24,1,3,2,0
4023.24,1,6,4,0
4023.24,2,7,5,0
4023.24,1,8,6,-1
4023.24,0,7,6,-3
4023.24,-1,7,5,-4
4023.24,-3,5,3,-5
4023.24,-4,3,0,-6
4023.24,-1,3,0,-5
4023.24,0,1,-1,-4
4023.24,1,3,0,0
4023.24,4,8,6,5
4023.24,7,10,12,9
4023.24,7,7,10,8
4023.24,4,3,5,4
4023.25,2,0,1,2
4023.25,1,0,0,0
4023.25,1,0,-1,0
4023.25,2,0,-2,0
4023.25,5,2,-1,1
4023.25,6,3,0,2
4023.25,5,2,0,2
4023.25,5,3,2,4
4023.25,6,6,5,7
4023.25,7,5,5,5
4023.25,5,0,0,2
4023.25,1,-3,-1,4
4023.25,3,-4,-2,4
4023.25,5,-2,-4,3
4023.25,5,-3,-6,2
4023.25,7,2,-1,3
4023.25,8,5,4,7
4023.26,10,9,9,10
4023.26,9,12,15,14
4023.26,8,10,15,11
4023.26,4,4,7,3
4023.26,0,1,1,-4
4023.26,-5,0,0,-6
4023.26,-6,2,1,-7
4023.26,-6,3,2,-5
4023.26,-4,4,4,-4
4023.26,-4,3,2,-5
4023.26,-4,1,0,-5
4023.26,-2,3,1,-2
4023.26,0,2,1,0
4023.26,2,4,2,1
4023.26,4,5,2,2
4023.26,5,5,2,3
4023.26,4,5,3,4
4023.26,6,6,6,7
4023.27,8,6,6,7
4023.27,7,6,4,5
4023.27,5,2,1,2
4023.27,2,0,-1,0
4023.27,3,0,-3,-1
4023.27,3,2,-1,1
4023.27,6,4,0,1
4023.27,5,5,2,4
4023.27,7,5,4,4
4023.27,6,4,4,5
4023.27,4,0,0,4
4023.27,2,-2,0,6
4023.27,3,-2,0,7
4023.27,4,-2,0,6
4023.27,4,-2,0,6
4023.27,6,0,1,7
4023.27,7,2,2,5
4023.28,5,4,3,3
4023.28,5,4,2,2
4023.28,3,4,3,2
4023.28,4,6,3,1
4023.28,4,7,5,0
4023.28,1,7,4,-2
4023.28,0,7,4,-3
4023.28,-1,7,4,-3
4023.28,0,7,5,-3
4023.28,-1,6,3,-3
4023.28,-2,4,3,-4
4023.28,-2,3,2,-1
4023.28,-1,1,1,0
4023.28,0,1,2,0
4023.28,1,3,3,3
4023.28,3,3,3,4
4023.28,4,5,6,5
4023.28,5,6,7,6
4023.29,4,4,4,3
4023.29,2,1,1,2
4023.29,1,1,0,2
4023.29,2,1,0,2
4023.29,3,1,1,3
4023.29,4,1,0,2
4023.29,5,2,-1,1
4023.29,5,3,0,1
4023.29,6,5,1,3
4023.29,6,3,2,4
4023.29,3,0,0,6
4023.29,5,-1,0,6
4023.29,7,0,-1,6
4023.29,5,-1,-1,6
4023.29,5,0,0,6
4023.29,7,2,1,7
4023.29,8,4,3,7
4023.3,8,6,5,5
4023.3,5,5,4,4
4023.3,3,4,3,1
4023.3,2,5,5,0
4023.3,1,5,4,0
4023.3,0,6,3,-3
4023.3,-1,6,3,-4
4023.3,-2,6,3,-5
4023.3,-2,5,2,-5
4023.3,-3,5,2,-5
4023.3,-1,4,2,-3
4023.3,-1,4,2,0
4023.3,0,3,4,2
4023.3,2,3,4,3
4023.3,4,5,6,6
4023.3,4,5,7,7
4023.3,4,3,5,6
4023.3,2,1,2,3
4023.31,2,0,1,2
4023.31,1,1,2,3
4023.31,2,0,1,3
4023.31,2,1,2,3
4023.31,3,1,0,2
4023.31,3,0,0,1
4023.31,3,2,0,2
4023.31,5,3,3,4
4023.31,5,5,5,6
4023.31,4,1,0,2
4023.31,2,-4,-7,0
4023.31,3,-2,-5,2
4023.31,6,0,-1,5
4023.31,7,1,1,9
4023.31,10,6,7,12
4023.31,10,6,8,12
4023.31,8,4,5,6
4023.32,5,1,0,0
4023.32,0,-1,-4,-4
4023.32,0,0,-2,-3
4023.32,3,6,1,-1
4023.32,4,9,0,-4
4023.32,4,10,2,-4
4023.32,4,13,7,-1
4023.32,3,14,12,1
4023.32,2,10,9,0
4023.32,0,6,4,-3
4023.32,-2,3,1,-5
4023.32,-4,0,-1,-4
4023.32,-3,0,0,0
4023.32,0,1,3,2
4023.32,2,3,4,4
4023.32,2,2,4,5
4023.32,3,3,5,5
4023.33,3,2,4,5
4023.33,3,2,3,4
4023.33,3,2,2,3
4023.33,3,1,0,2
4023.33,2,0,-1,1
4023.33,4,2,2,4
4023.33,5,4,4,6
4023.33,6,5,6,7
4023.33,6,4,6,7
4023.33,5,2,3,4
4023.33,2,-2,-2,1
4023.33,0,-7,-6,0
4023.33,1,-7,-7,2
4023.33,5,-1,-5,1
4023.33,7,0,-3,4
4023.33,11,5,1,6
4023.33,11,8,5,7
4023.33,10,8,5,7
4023.34,9,7,5,3
4023.34,4,6,4,2
4023.34,3,6,5,2
4023.34,2,7,7,1
4023.34,1,7,6,0
4023.34,0,6,5,-2
4023.34,-1,6,5,-3
4023.34,-1,6,4,-4
4023.34,-3,5,3,-5
4023.34,-5,4,3,-4
4023.34,-4,3,4,-2
4023.34,-3,2,3,0
4023.34,-2,0,0,0
4023.34,-1,-1,0,1
4023.34,0,-1,0,2
4023.34,4,2,2,5
4023.34,7,5,4,6
4023.35,7,6,4,5
4023.35,7,4,3,4
4023.35,6,4,3,4
4023.35,6,6,4,5
4023.35,6,4,2,3
4023.35,4,2,1,1
4023.35,3,1,0,0
4023.35,2,0,-1,0
4023.35,3,1,0,3
4023.35,5,2,1,4
4023.35,3,0,0,5
4023.35,4,-1,0,6
4023.35,6,0,0,7
4023.35,6,0,1,8
4023.35,7,0,1,8
4023.35,7,1,2,6
4023.35,6,2,1,5
4023.35,5,3,1,2
4023.36,4,4,2,1
4023.36,3,4,2,0
4023.36,3,5,3,0
4023.36,3,8,5,0
4023.36,2,8,6,-2
4023.36,0,8,6,-2
4023.36,-1,7,5,-3
4023.36,-2,5,4,-4
4023.36,-3,3,0,-5
4023.36,-3,4,1,-4
4023.36,-1,4,1,-2
4023.36,0,3,1,0
4023.36,1,4,5,4
4023.36,3,5,6,6
4023.36,4,3,3,4
4023.36,4,3,2,2
4023.36,3,3,3,5
4023.37,5,5,8,7
4023.37,4,3,7,8
4023.37,3,1,4,4
4023.37,1,-1,-2,0
4023.37,0,0,0,1
4023.37,0,0,2,3
4023.37,2,2,5,6
4023.37,3,1,4,6
4023.37,4,1,2,4
4023.37,3,0,-2,0
4023.37,0,-7,-10,-3
4023.37,1,-5,-10,-1
4023.37,6,0,-4,4
4023.37,11,5,0,8
4023.37,14,8,4,11
4023.37,15,10,5,9
4023.37,13,9,5,7
4023.38,9,7,4,4
4023.38,6,5,1,0
4023.38,3,3,0,-1
4023.38,2,4,0,-2
4023.38,2,7,4,-1
4023.38,1,9,8,0
4023.38,1,9,8,-1
4023.38,-1,7,6,-4
4023.38,-3,5,4,-5
4023.38,-5,2,2,-4
4023.38,-5,2,3,-3
4023.38,-3,2,4,0
4023.38,-2,0,3,1
4023.38,0,0,2,1
4023.38,1,2,3,2
4023.38,1,2,3,3
4023.38,3,2,3,5
4023.38,4,3,4,5
4023.39,5,4,5,4
4023.39,3,2,2,3
4023.39,2,1,0,2
4023.39,3,1,0,3
4023.39,4,2,1,3
4023.39,5,3,1,3
4023.39,5,3,0,2
4023.39,5,1,-4,-2
4023.39,4,2,-3,0
4023.39,6,4,0,3
4023.39,5,0,-1,5
4023.39,8,1,0,7
4023.39,9,2,1,7
4023.39,7,2,6,12
4023.39,8,4,8,12
4023.39,7,3,10,13
4023.39,6,3,10,9
4023.4,2,0,2,2
4023.4,-1,-2,-1,-3
4023.4,-4,-3,-3,-4
4023.4,-1,1,-3,-6
4023.4,0,4,-1,-5
4023.4,1,10,5,-2
4023.4,4,12,8,0
4023.4,2,11,8,0
4023.4,1,9,6,-2
4023.4,0,6,3,-4
4023.4,-2,4,2,-3
4023.4,-1,3,2,-1
4023.4,0,3,2,1
4023.4,1,3,3,2
4023.4,1,3,3,2
4023.4,3,3,3,3
4023.4,2,2,1,2
4023.41,2,1,0,2
4023.41,2,2,2,3
4023.41,3,2,3,5
4023.41,6,4,5,6
4023.41,6,6,5,6
4023.41,6,4,4,4
4023.41,5,3,2,4
4023.41,4,2,2,2
4023.41,3,2,0,2
4023.41,3,0,0,1
4023.41,1,-1,-2,2
4023.41,2,-5,-7,1
4023.41,4,-3,-5,3
4023.41,7,1,0,6
4023.41,8,2,2,9
4023.41,10,5,6,10
4023.41,10,6,5,8
4023.41,8,5,5,5
4023.42,4,4,3,1
4023.42,1,1,0,0
4023.42,0,1,0,0
4023.42,2,5,3,0
4023.42,1,6,3,-2
4023.42,1,7,3,-2
4023.42,1,8,4,-3
4023.42,0,8,5,-3
4023.42,0,7,4,-4
4023.42,-1,5,2,-4
4023.42,-1,5,3,-3
4023.42,-1,2,2,-1
4023.42,-1,2,2,0
4023.42,1,3,4,4
4023.42,4,5,6,5
4023.42,5,5,5,5
4023.42,5,3,3,4
4023.43,3,3,4,4
4023.43,3,1,3,4
4023.43,2,0,1,2
4023.43,2,0,1,2
4023.43,2,0,0,1
4023.43,2,2,1,2
4023.43,3,2,0,2
4023.43,4,2,0,3
4023.43,5,3,0,2
4023.43,4,2,0,1
4023.43,3,0,-1,4
4023.43,5,0,0,6
4023.43,7,0,0,7
4023.43,8,0,0,6
4023.43,8,3,4,10
4023.43,10,5,7,10
4023.43,7,2,3,5
4023.43,4,2,3,3
4023.44,2,3,2,2
4023.44,2,3,3,1
4023.44,0,1,0,-2
4023.44,0,2,-1,-5
4023.44,0,6,1,-4
4023.44,2,10,4,-3
4023.44,0,8,3,-4
4023.44,0,8,2,-4
4023.44,0,9,6,-1
4023.44,1,9,10,2
4023.44,1,7,10,3
4023.44,0,1,5,1
4023.44,-1,-1,2,1
4023.44,-1,0,1,1
4023.44,-1,-1,-1,0
4023.44,0,1,1,2
4023.44,3,3,1,3
4023.45,4,3,1,3
4023.45,5,4,3,5
4023.45,6,6,7,7
4023.45,6,4,6,6
4023.45,3,2,3,4
4023.45,1,0,1,3
4023.45,2,0,0,1
4023.45,2,0,0,1
4023.45,3,1,0,0
4023.45,5,2,-3,0
4023.45,4,-1,-8,-2
4023.45,6,0,-7,0
4023.45,9,4,0,7
4023.45,11,7,7,13
4023.45,13,5,7,12
4023.45,10,5,6,9
4023.45,9,5,7,7
4023.45,6,4,4,3
4023.46,0,0,0,0
4023.46,-1,0,0,0
4023.46,0,2,0,-2
4023.46,1,5,2,-3
4023.46,-1,5,2,-4
4023.46,-2,4,3,-3
4023.46,-1,6,5,-1
4023.46,1,9,8,1
4023.46,2,8,7,0
4023.46,-1,4,3,-4
4023.46,-3,0,0,-3
4023.46,-3,0,2,1
4023.46,2,4,5,4
4023.46,3,4,5,4
4023.46,1,1,3,3
4023.46,1,1,1,3
4023.46,2,0,0,4
4023.47,5,4,4,5
4023.47,4,4,6,5
4023.47,2,2,5,6
4023.47,2,0,2,4
4023.47,2,0,-1,2
4023.47,5,2,-1,0
4023.47,4,1,-3,-1
4023.47,4,0,-5,-2
4023.47,5,3,-3,0
4023.47,8,7,1,3
4023.47,8,6,6,10
4023.47,10,4,6,11
4023.47,9,2,4,10
4023.47,6,-1,1,8
4023.47,5,0,1,6
4023.47,4,0,0,3
4023.47,2,0,0,1
4023.48,1,0,0,0
4023.48,2,3,1,1
4023.48,2,3,1,0
4023.48,2,5,3,0
4023.48,2,7,4,-1
4023.48,2,9,6,0
4023.48,2,10,8,0
4023.48,1,10,10,0
4023.48,0,7,6,-2
4023.48,-4,2,1,-5
4023.48,-4,2,1,-4
4023.48,-4,1,1,-1
4023.48,-1,1,2,0
4023.48,1,2,5,3
4023.48,1,4,5,4
4023.48,3,4,4,3
4023.48,3,3,2,3
4023.48,3,2,2,3
4023.49,3,1,0,1
4023.49,3,1,0,2
4023.49,4,2,0,4
4023.49,6,2,0,5
4023.49,6,1,0,3
4023.49,6,3,2,5
4023.49,7,7,7,8
4023.49,7,5,5,6
4023.49,5,3,3,3
4023.49,3,0,-1,1
4023.49,0,-6,-6,0
4023.49,1,-5,-5,2
4023.49,5,0,-1,5
4023.49,7,1,0,8
4023.49,11,4,3,8
4023.49,10,4,2,7
4023.49,9,6,3,5
4023.5,7,6,4,3
4023.5,5,6,4,2
4023.5,3,5,2,0
4023.5,2,6,3,-1
4023.5,0,5,2,-3
4023.5,0,6,4,-3
4023.5,0,7,5,-3
4023.5,-1,6,4,-4
4023.5,-2,6,5,-3
4023.5,-2,6,8,0
4023.5,-2,6,9,1
4023.5,-2,1,7,2
4023.5,-2,0,1,0
4023.5,-2,-2,-2,-2
4023.5,-2,-1,-1,0
4023.5,0,0,0,1
4023.5,3,2,1,2
4023.5,5,3,1,3
4023.51,6,3,0,2
4023.51,7,3,-1,1
4023.51,8,7,2,4
4023.51,10,9,6,7
4023.51,10,9,9,9
4023.51,8,7,7,7
4023.51,6,2,1,2
4023.51,2,0,0,0
4023.51,1,0,-3,0
4023.51,0,-4,-5,0
4023.51,2,-4,-4,3
4023.51,5,-2,-1,5
4023.51,7,1,0,7
4023.51,7,0,1,8
4023.51,8,3,3,7
4023.51,7,3,2,6
4023.51,7,6,5,5
4023.52,5,5,5,3
4023.52,2,3,3,0
4023.52,0,1,1,-1
4023.52,0,4,5,0
4023.52,2,8,7,0
4023.52,1,9,7,-1
4023.52,0,8,6,-2
4023.52,0,7,6,-2
4023.52,-2,5,4,-3
4023.52,-3,3,2,-4
4023.52,-3,2,0,-5
4023.52,-5,0,0,-2
4023.52,-1,2,3,2
4023.52,0,3,6,6
4023.52,3,3,6,6
4023.52,2,2,4,6
4023.52,4,1,2,3
4023.52,3,1,0,3
4023.53,5,3,0,1
4023.53,4,1,-2,0
4023.53,5,3,-1,1
4023.53,7,6,3,4
4023.53,9,9,6,7
4023.53,8,7,5,5
4023.53,6,3,1,1
4023.53,3,1,-2,0
4023.53,1,-1,-2,0
4023.53,0,-3,-4,1
4023.53,3,-3,-2,5
4023.53,6,0,0,7
4023.53,8,1,1,8
4023.53,8,3,3,8
4023.53,7,2,1,6
4023.53,7,2,1,5
4023.53,6,5,4,4
4023.54,5,5,5,4
4023.54,3,4,4,2
4023.54,1,6,5,2
4023.54,2,7,8,1
4023.54,0,7,8,0
4023.54,-1,5,5,-3
4023.54,-4,2,1,-6
4023.54,-5,1,0,-7
4023.54,-5,3,3,-4
4023.54,-3,3,4,-1
4023.54,-2,2,2,-1
4023.54,-2,1,2,0
4023.54,0,2,2,1
4023.54,2,2,0,0
4023.54,3,2,-2,0
4023.54,6,4,-2,0
4023.54,8,8,1,3
4023.54,11,11,7,7
4023.55,11,10,7,7
4023.55,9,8,7,7
4023.55,6,4,5,4
4023.55,3,1,1,2
4023.55,0,-1,-1,0
4023.55,0,-2,-2,-1
4023.55,1,-1,-2,1
4023.55,3,0,0,3
4023.55,5,3,2,5
4023.55,5,0,0,6
4023.55,5,0,2,8
4023.55,6,1,3,8
4023.55,6,0,1,8
4023.55,6,0,0,5
4023.55,6,0,0,3
4023.55,5,1,1,3
4023.55,5,4,3,3
4023.56,5,4,3,3
4023.56,4,5,4,2
4023.56,5,7,5,0
4023.56,2,6,2,-2
4023.56,1,7,3,-4
4023.56,0,7,4,-3
4023.56,0,8,4,-4
4023.56,0,7,4,-4
4023.56,-2,4,3,-3
4023.56,-2,5,5,-1
4023.56,-2,3,3,0
4023.56,0,2,4,2
4023.56,1,2,3,2
4023.56,0,1,3,3
4023.56,0,0,2,3
4023.56,2,2,2,4
4023.56,4,3,2,4
4023.57,5,3,3,4
4023.57,4,3,1,2
4023.57,3,1,0,1
4023.57,5,3,2,3
4023.57,6,4,2,3
4023.57,5,4,2,3
4023.57,5,3,2,3
4023.57,4,3,2,3
4023.57,3,3,4,4
4023.57,2,0,2,6
4023.57,1,-4,1,8
4023.57,3,-4,-1,6
4023.57,4,-3,-2,6
4023.57,4,-2,-1,6
4023.57,7,1,1,6
4023.57,7,1,0,4
4023.57,7,2,0,0
4023.57,5,3,-3,-2
4023.58,6,6,-3,-2
4023.58,6,8,0,-1
4023.58,8,11,2,-1
4023.58,8,14,4,-2
4023.58,6,16,10,2
4023.58,5,13,10,0
4023.58,1,11,10,1
4023.58,0,8,10,0
4023.58,-3,2,6,-1
4023.58,-5,0,1,-4
4023.58,-8,-5,-5,-7
4023.58,-7,-5,-4,-4
4023.58,-4,1,4,4
4023.58,0,2,6,6
4023.58,3,4,6,6
4023.58,3,2,4,5
4023.58,2,1,2,2
4023.59,1,0,0,2
4023.59,3,0,0,2
4023.59,4,3,-1,1
4023.59,7,4,1,3
4023.59,7,6,3,5
4023.59,7,7,5,6
4023.59,6,5,4,4
4023.59,5,4,4,4
4023.59,4,1,1,3
4023.59,1,-4,-3,2
4023.59,1,-6,-4,2
4023.59,3,-4,-2,7
4023.59,5,-2,0,8
4023.59,7,-1,0,7
4023.59,10,2,1,6
4023.59,7,3,0,4
4023.59,7,5,3,5
4023.59,7,8,7,6
4023.6,7,9,9,5
4023.6,6,8,6,2
4023.6,2,7,5,-1
4023.6,-1,5,2,-5
4023.6,-3,3,0,-8
4023.6,-3,4,0,-7
4023.6,-2,6,0,-7
4023.6,-2,5,0,-6
4023.6,0,8,5,-1
4023.6,1,8,7,1
4023.6,2,5,5,2
4023.6,1,2,3,3
4023.6,2,2,2,2
4023.6,2,2,2,3
4023.6,3,3,3,4
4023.6,3,3,4,4
4023.6,4,3,3,4
4023.61,4,2,1,2
4023.61,2,1,0,1
4023.61,3,1,0,3
4023.61,5,2,1,3
4023.61,4,3,1,3
4023.61,5,4,2,4
4023.61,4,2,1,3
4023.61,4,3,3,4
4023.61,3,2,4,5
4023.61,2,-1,2,7
4023.61,3,-5,-3,4
4023.61,3,-4,-5,2
4023.61,4,-1,-4,2
4023.61,5,0,-2,4
4023.61,9,4,2,7
4023.61,10,8,6,7
4023.61,10,10,8,7
4023.61,7,7,7,4
4023.62,3,4,4,1
4023.62,1,4,6,2
4023.62,0,4,5,0
4023.62,-1,3,2,-4
4023.62,-4,2,2,-4
4023.62,-4,3,2,-3
4023.62,-2,4,4,-2
4023.62,-1,5,4,-2
4023.62,-1,4,2,-2
4023.62,0,5,4,-1
4023.62,0,3,2,0
4023.62,1,1,1,1
4023.62,2,4,2,2
4023.62,3,3,2,3
4023.62,5,4,2,3
4023.62,5,4,2,3
4023.62,5,4,3,4
4023.63,5,5,3,4
4023.63,6,4,4,5
4023.63,5,3,5,5
4023.63,4,2,4,5
4023.63,2,0,1,3
4023.63,1,0,-1,1
4023.63,1,0,-2,0
4023.63,2,1,-3,0
4023.63,3,1,0,2
4023.63,4,0,0,5
4023.63,6,0,1,8
4023.63,8,1,2,9
4023.63,8,1,0,6
4023.63,7,1,0,5
4023.63,7,1,-1,3
4023.63,6,3,0,3
4023.63,6,6,3,4
4023.64,6,7,5,3
4023.64,4,5,4,2
4023.64,3,6,5,1
4023.64,2,8,7,0
4023.64,0,7,5,-3
4023.64,-1,5,3,-5
4023.64,-2,5,3,-5
4023.64,-3,4,2,-6
4023.64,-3,2,0,-7
4023.64,-2,3,1,-3
4023.64,0,4,2,0
4023.64,1,4,3,2
4023.64,2,4,5,4
4023.64,3,3,4,4
4023.64,4,4,4,4
4023.64,4,3,3,4
4023.64,4,3,2,3
4023.65,4,3,3,4
4023.65,4,3,4,4
4023.65,4,4,5,5
4023.65,2,1,2,3
4023.65,2,0,0,0
4023.65,1,0,-1,1
4023.65,3,0,-1,0
4023.65,4,2,0,2
4023.65,5,3,-1,1
4023.65,4,1,-2,2
4023.65,5,0,-1,5
4023.65,8,3,5,12
4023.65,11,6,9,14
4023.65,9,1,4,11
4023.65,6,0,1,6
4023.65,4,0,-1,2
4023.65,2,0,-1,0
4023.65,2,1,0,0
4023.66,1,2,1,0
4023.66,3,5,2,0
4023.66,3,8,5,0
4023.66,2,7,4,-2
4023.66,0,5,3,-4
4023.66,-1,8,7,0
4023.66,0,9,10,0
4023.66,-1,6,7,-1
4023.66,-3,1,1,-4
4023.66,-5,0,1,-2
4023.66,-2,1,1,0
4023.66,1,3,2,2
4023.66,3,4,3,2
4023.66,4,6,4,3
4023.66,4,4,4,4
4023.66,4,3,2,3
4023.66,5,4,2,3
4023.67,6,4,3,4
4023.67,4,3,1,3
4023.67,3,1,0,1
4023.67,2,0,0,0
4023.67,3,1,0,3
4023.67,5,3,2,4
4023.67,6,4,2,3
4023.67,5,4,2,3
4023.67,4,4,4,5
4023.67,4,1,1,5
4023.67,2,-4,-3,4
4023.67,3,-3,-1,6
4023.67,6,-1,0,7
4023.67,5,0,0,6
4023.67,7,2,2,7
4023.67,7,3,3,6
4023.67,6,4,2,1
4023.67,2,1,-2,-3
4023.68,1,1,-2,-3
4023.68,3,6,1,-1
4023.68,7,13,9,3
4023.68,7,13,10,2
4023.68,5,12,11,1
4023.68,1,9,7,-1
4023.68,-1,6,5,-4
4023.68,-4,2,2,-4
4023.68,-4,1,1,-4
4023.68,-4,0,1,-3
4023.68,-3,-1,-2,-3
4023.68,0,3,2,1
4023.68,2,4,6,5
4023.68,3,4,5,5
4023.68,3,2,4,4
4023.68,3,3,3,4
4023.68,4,3,2,3
4023.69,3,1,2,3
4023.69,3,0,0,3
4023.69,4,0,1,4
4023.69,6,3,1,4
4023.69,6,3,0,2
4023.69,4,2,0,2
4023.69,5,3,1,3
4023.69,5,5,2,5
4023.69,7,5,3,5
4023.69,3,0,0,5
4023.69,2,-2,0,5
4023.69,3,-1,0,5
4023.69,5,0,1,7
4023.69,6,0,0,5
4023.69,6,0,0,3
4023.69,4,0,-2,0
4023.69,4,2,0,0
4023.7,5,4,0,0
4023.7,6,8,3,1
4023.7,5,8,6,3
4023.7,6,9,6,1
4023.7,3,9,7,0
4023.7,3,11,9,0
4023.7,0,8,6,-1
4023.7,-2,4,3,-6
4023.7,-5,0,-1,-7
4023.7,-4,1,0,-6
4023.7,-4,2,1,-2
4023.7,-1,2,3,1
4023.7,1,4,7,6
4023.7,4,6,8,7
4023.7,4,4,7,6
4023.7,2,1,3,4
4023.7,1,0,2,2
4023.7,1,0,0,2
4023.71,2,0,0,2
4023.71,2,0,2,3
4023.71,3,2,2,4
4023.71,4,2,2,3
4023.71,5,3,2,2
4023.71,3,2,0,2
4023.71,4,3,1,2
4023.71,3,2,1,3
4023.71,4,2,0,4
4023.71,3,-2,-2,4
4023.71,4,-2,-3,4
4023.71,7,0,0,6
4023.71,7,0,1,9
4023.71,10,3,3,9
4023.71,9,4,3,8
4023.71,8,4,2,5
4023.71,6,3,2,2
4023.72,4,3,1,0
4023.72,2,2,0,-1
4023.72,3,5,0,-2
4023.72,3,8,2,-3
4023.72,2,9,4,-2
4023.72,1,10,6,-2
4023.72,0,10,6,-2
4023.72,0,9,6,-1
4023.72,-1,7,6,-2
4023.72,-2,5,4,-2
4023.72,-4,1,4,0
4023.72,-4,0,4,2
4023.72,-1,1,6,5
4023.72,0,0,5,4
4023.72,-1,-2,1,1
4023.72,-1,-4,-2,0
4023.72,1,-1,-1,1
4023.72,4,3,1,4
4023.73,6,3,0,2
4023.73,6,4,0,2
4023.73,8,7,3,4
4023.73,9,7,3,5
4023.73,8,6,3,4
4023.73,6,6,3,4
4023.73,6,4,2,3
4023.73,5,3,0,0
4023.73,2,0,-4,0
4023.73,0,-5,-6,0
4023.73,4,-1,-1,6
4023.73,8,3,2,9
4023.73,8,0,-2,4
4023.73,8,1,-1,4
4023.73,9,6,4,8
4023.73,9,8,9,9
4023.73,8,8,9,7
4023.74,5,6,9,6
4023.74,1,3,7,2
4023.74,0,2,5,0
4023.74,-4,2,8,0
4023.74,-4,3,8,0
4023.74,-5,1,4,-4
4023.74,-7,1,1,-6
4023.74,-7,0,-2,-9
4023.74,-7,0,-4,-8
4023.74,-4,1,-4,-7
4023.74,0,3,-3,-3
4023.74,5,7,0,0
4023.74,8,11,5,4
4023.74,9,13,11,10
4023.74,10,11,13,13
4023.74,10,8,9,9
4023.74,6,3,2,3
4023.74,1,0,-1,0
4023.75,0,-1,-1,0
4023.75,0,0,-1,0
4023.75,3,2,1,3
4023.75,5,5,4,6
4023.75,6,4,1,2
4023.75,3,0,0,1
4023.75,2,0,0,2
4023.75,2,1,1,4
4023.75,3,-1,-2,2
4023.75,3,-4,-6,0
4023.75,5,-2,-5,3
4023.75,7,0,-1,6
4023.75,10,2,-1,6
4023.75,13,6,0,6
4023.75,12,9,2,5
4023.75,11,10,6,5
4023.75,7,9,9,7
4023.76,6,7,10,7
4023.76,3,5,8,4
4023.76,1,5,7,0
4023.76,-3,2,4,-3
4023.76,-7,0,0,-7
4023.76,-8,-1,-2,-10
4023.76,-7,1,0,-6
4023.76,-3,4,0,-5
4023.76,-2,3,0,-6
4023.76,0,4,0,-4
4023.76,0,4,0,-1
4023.76,5,7,3,3
4023.76,9,12,12,10
4023.76,9,10,12,10
4023.76,6,6,9,9
4023.76,3,2,7,8
4023.76,2,2,9,8
4023.77,0,-2,2,2
4023.77,-3,-6,-4,-2
4023.77,-2,-5,-6,-3
4023.77,0,-3,-5,-2
4023.77,2,0,-4,0
4023.77,5,4,0,2
4023.77,9,8,4,5
4023.77,9,8,7,7
4023.77,8,7,6,7
4023.77,5,0,1,6
4023.77,4,-2,-2,5
4023.77,4,-3,-2,5
4023.77,5,-1,-1,6
4023.77,6,0,0,7
4023.77,7,1,2,6
4023.77,7,3,3,5
4023.77,6,3,0,1
4023.77,4,2,0,0
4023.78,5,5,1,0
4023.78,5,8,4,1
4023.78,4,8,5,0
4023.78,3,9,5,-1
4023.78,1,9,6,-3
4023.78,0,8,5,-3
4023.78,-2,7,5,-3
4023.78,-3,5,5,-3
4023.78,-3,4,5,-1
4023.78,-3,1,2,-2
4023.78,-3,0,1,0
4023.78,-2,0,1,1
4023.78,0,1,2,3
4023.78,3,3,4,5
4023.78,5,4,5,6
4023.78,6,5,6,6
4023.78,5,4,3,3
4023.79,3,1,0,2
4023.79,4,2,0,2
4023.79,4,1,-1,1
4023.79,4,1,0,1
4023.79,5,2,0,3
4023.79,6,2,-2,1
4023.79,7,6,0,1
4023.79,8,9,6,7
4023.79,8,7,6,7
4023.79,3,-1,1,6
4023.79,2,-4,0,6
4023.79,3,-3,-1,5
4023.79,3,-3,0,6
4023.79,5,0,2,7
4023.79,5,-1,-1,4
4023.79,3,0,0,3
4023.79,6,5,4,3
4023.79,5,4,2,1
4023.8,3,3,0,0
4023.8,3,6,2,0
4023.8,3,9,6,0
4023.8,4,10,6,-1
4023.8,1,9,5,-2
4023.8,0,7,3,-5
4023.8,-2,5,3,-4
4023.8,-1,6,3,-2
4023.8,-1,5,4,-2
4023.8,-1,3,4,0
4023.8,0,1,3,2
4023.8,1,2,4,3
4023.8,1,4,5,4
4023.8,2,2,3,2
4023.8,1,1,1,1
4023.8,2,0,1,1
4023.8,2,0,0,2
4023.81,3,2,1,2
4023.81,3,0,0,4
4023.81,5,0,-2,2
4023.81,6,3,1,6
4023.81,7,5,3,6
4023.81,7,6,4,6
4023.81,7,6,6,7
4023.81,6,4,3,4
4023.81,3,0,0,2
4023.81,1,-6,-5,2
4023.81,2,-3,-3,4
4023.81,6,2,2,8
4023.81,7,2,2,7
4023.81,7,2,1,5
4023.81,6,2,1,5
4023.81,5,3,1,3
4023.81,4,4,3,3
4023.81,4,7,6,4
4023.82,4,6,6,3
4023.82,3,6,5,0
4023.82,0,4,2,-5
4023.82,-1,4,0,-7
4023.82,-4,3,0,-6
4023.82,-1,8,4,-3
4023.82,0,8,5,-3
4023.82,-1,6,5,-2
4023.82,0,5,5,-1
4023.82,0,4,4,1
4023.82,0,3,3,1
4023.82,2,3,3,2
4023.82,3,2,1,2
4023.82,2,1,2,2
4023.82,3,3,2,3
4023.82,4,2,3,5
4023.82,4,2,1,3
4023.83,4,0,0,3
4023.83,5,2,0,3
4023.83,6,4,2,4
4023.83,6,6,4,6
4023.83,6,6,5,6
4023.83,5,5,4,4
4023.83,4,2,1,2
4023.83,2,1,0,0
4023.83,0,-2,0,2
4023.83,0,-3,-1,4
4023.83,1,-2,2,8
4023.83,5,0,4,9
4023.83,5,0,2,8
4023.83,5,0,2,7
4023.83,5,1,2,4
4023.83,4,1,0,1
4023.83,2,0,0,1
4023.83,2,1,0,0
4023.84,3,3,0,0
4023.84,4,7,4,0
4023.84,4,11,8,2
4023.84,3,10,8,0
4023.84,1,9,4,-3
4023.84,0,7,2,-5
4023.84,0,8,4,-3
4023.84,0,6,2,-4
4023.84,-1,4,0,-3
4023.84,0,2,-3,-4
4023.84,1,2,-1,-2
4023.84,2,5,2,2
4023.84,5,5,2,3
4023.84,4,4,2,4
4023.84,5,4,3,4
4023.84,5,4,1,2
4023.84,5,3,0,1
4023.85,4,4,4,5
4023.85,6,6,8,9
4023.85,6,5,8,9
4023.85,5,4,8,8
4023.85,3,0,4,3
4023.85,-1,-3,-1,-1
4023.85,-4,-5,-3,-1
4023.85,-1,-3,-2,0
4023.85,0,-3,-3,2
4023.85,2,-3,-2,4
4023.85,5,0,-1,6
4023.85,7,0,0,9
4023.85,10,4,3,10
4023.85,11,6,4,9
4023.85,9,5,4,5
4023.85,7,4,3,2
4023.85,3,3,1,1
4023.85,3,3,2,1
4023.86,3,5,3,0
4023.86,3,7,4,-1
4023.86,1,7,4,-2
4023.86,0,8,5,-2
4023.86,0,8,5,-3
4023.86,-1,7,4,-4
4023.86,-2,5,4,-3
4023.86,-1,5,3,-3
4023.86,-2,4,4,0
4023.86,0,2,3,1
4023.86,0,0,1,0
4023.86,0,0,0,0
4023.86,0,0,1,2
4023.86,3,2,2,4
4023.86,5,3,3,5
4023.86,6,6,5,6
4023.86,7,5,5,7
4023.87,6,4,4,5
4023.87,4,3,4,5
4023.87,4,2,3,4
4023.87,3,3,4,5
4023.87,3,2,3,4
4023.87,2,0,1,2
4023.87,0,-1,-2,0
4023.87,0,-1,-3,0
4023.87,0,-4,-5,1
4023.87,4,-1,-3,4
4023.87,6,2,2,9
4023.87,8,2,4,12
4023.87,9,3,5,10
4023.87,9,3,3,7
4023.87,6,2,2,4
4023.87,5,2,0,0
4023.87,2,1,-3,-3
4023.88,1,0,-9,-8
4023.88,2,5,-4,-6
4023.88,5,11,2,-2
4023.88,7,15,9,3
4023.88,7,15,11,3
4023.88,4,13,9,0
4023.88,3,10,6,-1
4023.88,0,9,7,-1
4023.88,-1,6,5,-3
4023.88,-4,1,2,-3
4023.88,-5,0,1,-1
4023.88,-2,0,0,0
4023.88,-2,0,2,1
4023.88,0,0,1,2
4023.88,0,0,3,4
4023.88,3,0,4,6
4023.88,4,2,3,6
4023.89,4,1,2,5
4023.89,5,1,0,3
4023.89,4,1,0,2
4023.89,5,2,-1,1
4023.89,6,5,0,1
4023.89,6,6,2,3
4023.89,6,5,3,4
4023.89,6,5,4,4
4023.89,5,3,2,4
4023.89,4,-2,-2,3
4023.89,3,-2,-3,3
4023.89,4,0,-1,5
4023.89,6,0,0,7
4023.89,9,3,2,8
4023.89,9,6,4,7
4023.89,7,5,5,5
4023.89,4,4,4,2
4023.89,2,4,5,3
4023.9,1,3,5,2
4023.9,1,1,0,-4
4023.9,-2,1,-2,-8
4023.9,-2,5,1,-5
4023.9,0,8,4,-2
4023.9,1,9,6,-1
4023.9,2,9,5,-1
4023.9,1,7,5,-1
4023.9,0,5,3,0
4023.9,0,3,2,0
4023.9,0,2,2,1
4023.9,2,6,7,4
4023.9,4,8,9,6
4023.9,2,6,15,10
4023.9,0,0,8,8
4023.9,-2,-5,0,0
4023.9,-4,-6,-3,0
4023.91,-2,-5,-2,0
4023.91,0,-4,-3,0
4023.91,2,0,0,3
4023.91,6,5,4,6
4023.91,9,8,7,7
4023.91,9,9,8,7
4023.91,7,5,3,3
4023.91,2,0,-1,0
4023.91,1,-3,-6,-1
4023.91,2,-3,-5,2
4023.91,5,0,-1,6
4023.91,8,2,0,6
4023.91,8,0,0,6
4023.91,11,5,1,6
4023.91,11,7,3,7
4023.91,11,8,5,5
4023.91,7,7,4,3
4023.91,4,5,2,1
4023.92,3,5,2,0
4023.92,3,7,4,-2
4023.92,0,6,3,-4
4023.92,-1,6,4,-4
4023.92,-2,6,4,-3
4023.92,0,7,6,-2
4023.92,-2,5,5,-3
4023.92,-4,1,1,-4
4023.92,-3,1,3,-2
4023.92,-3,0,4,2
4023.92,0,1,4,3
4023.92,1,1,3,2
4023.92,0,1,3,3
4023.92,1,2,3,4
4023.92,4,3,4,5
4023.92,5,4,3,4
4023.92,6,4,1,2
4023.93,5,4,2,3
4023.93,5,4,2,3
4023.93,5,3,2,4
4023.93,5,2,1,3
4023.93,4,1,0,1
4023.93,4,2,0,4
4023.93,5,3,1,3
4023.93,5,3,1,3
4023.93,2,-1,-1,4
4023.93,3,-1,0,6
4023.93,5,-1,0,5
4023.93,5,0,0,6
4023.93,6,0,0,7
4023.93,7,3,2,6
4023.93,7,3,2,5
4023.93,6,4,3,4
4023.93,4,3,2,1
4023.94,3,4,3,2
4023.94,3,6,5,1
4023.94,4,8,5,0
4023.94,1,8,5,-2
4023.94,0,8,7,-2
4023.94,-1,6,5,-2
4023.94,-3,5,5,-3
4023.94,-3,3,3,-4
4023.94,-4,2,0,-5
4023.94,-3,1,-2,-6
4023.94,-2,0,-3,-3
4023.94,1,3,-1,0
4023.94,5,6,4,3
4023.94,8,9,9,9
4023.94,8,9,11,10
4023.94,7,5,8,8
4023.94,4,2,4,4
4023.94,2,2,3,4
4023.95,1,1,5,6
4023.95,1,0,5,5
4023.95,0,-1,2,3
4023.95,0,-1,2,3
4023.95,0,-3,-2,0
4023.95,0,-4,-6,-4
4023.95,0,-3,-8,-3
4023.95,2,-2,-9,-3
4023.95,4,-1,-9,0
4023.95,11,8,2,9
4023.95,17,11,9,15
4023.95,15,9,7,14
4023.95,14,8,7,11
4023.95,10,6,4,7
4023.95,6,2,1,2
4023.95,2,1,0,0
4023.95,1,1,1,1
4023.96,2,3,3,2
4023.96,2,3,2,0
4023.96,0,4,2,-3
4023.96,-1,5,4,-3
4023.96,-2,5,3,-4
4023.96,0,7,4,-4
4023.96,0,8,5,-3
4023.96,0,7,3,-3
4023.96,-1,5,4,-3
4023.96,-2,4,4,0
4023.96,0,3,3,1
4023.96,2,3,3,2
4023.96,1,3,7,6
4023.96,1,1,6,7
4023.96,1,0,1,3
4023.96,1,0,1,3
4023.96,2,2,1,2
4023.96,3,1,0,2
4023.97,2,2,0,2
4023.97,3,1,0,3
4023.97,6,4,1,3
4023.97,6,4,0,2
4023.97,5,4,0,2
4023.97,5,3,0,2
4023.97,6,4,2,5
4023.97,7,5,2,5
4023.97,6,0,0,6
4023.97,5,0,3,9
4023.97,6,2,7,11
4023.97,4,-1,2,8
4023.97,3,-3,-1,4
4023.97,2,-3,-4,0
4023.97,3,0,-4,-1
4023.97,4,2,-3,-2
4023.97,4,6,1,0
4023.98,6,10,6,2
4023.98,6,11,9,3
4023.98,4,10,10,2
4023.98,0,8,8,0
4023.98,-1,6,5,-2
4023.98,-1,6,4,-4
4023.98,-3,3,0,-6
4023.98,-4,0,-5,-10
4023.98,-4,0,-4,-7
4023.98,0,6,3,1
4023.98,5,9,9,5
4023.98,5,8,8,5
4023.98,4,5,7,5
4023.98,2,4,6,6
4023.98,1,0,2,3
4023.98,1,0,0,1
4023.98,2,2,2,3
4023.98,4,3,3,5
4023.99,4,2,1,2
4023.99,3,1,0,1
4023.99,3,1,0,1
4023.99,3,1,-2,0
4023.99,3,2,-1,1
4023.99,5,3,1,3
4023.99,5,3,2,5
4023.99,5,0,0,5
4023.99,5,-1,0,7
4023.99,6,0,0,8
4023.99,7,0,2,8
4023.99,6,0,1,8
4023.99,7,2,3,7
4023.99,7,3,3,5
4023.99,6,4,4,3
4023.99,3,4,3,1
4023.99,1,2,1,0
4024,0,2,2,0
4024,2,6,5,0
4024,1,7,4,-2
4024,0,7,4,-3
4024,0,6,4,-4
4024,0,7,4,-5
4024,-1,6,3,-6
4024,-1,6,3,-3
4024,-1,4,3,-1
4024,-1,1,0,-2
4024,0,1,0,0
4024,2,3,1,1
4024,4,3,0,2
4024,5,5,1,4
4024,8,7,6,7
4024,8,8,7,7
4024,5,5,6,6
4024,4,2,4,4
4024.01,3,0,0,2
4024.01,2,0,-1,1
4024.01,2,0,0,1
4024.01,2,0,1,2
4024.01,3,1,1,3
4024.01,4,2,1,3
4024.01,4,3,3,5
4024.01,2,-1,0,4
4024.01,2,-3,-2,4
4024.01,4,-1,0,6
4024.01,6,0,0,6
4024.01,8,1,0,5
4024.01,7,2,2,6
4024.01,6,4,4,6
4024.01,6,6,5,5
4024.01,5,6,4,3
4024.01,5,5,3,1
4024.02,2,4,0,-1
4024.02,1,5,1,-3
4024.02,1,7,2,-3
4024.02,1,9,5,-2
4024.02,1,8,4,-3
4024.02,0,7,3,-4
4024.02,-1,5,2,-5
4024.02,-2,4,1,-3
4024.02,0,6,3,-1
4024.02,0,4,4,1
4024.02,1,2,3,3
4024.02,2,3,2,3
4024.02,3,3,4,5
4024.02,4,4,7,7
4024.02,3,2,7,9
4024.02,3,2,8,9
4024.02,2,-2,-1,0
4024.03,0,-2,-3,-1
4024.03,1,1,-1,0
4024.03,2,2,1,1
4024.03,3,3,2,2
4024.03,4,5,5,5
4024.03,6,5,6,6
4024.03,4,2,2,3
4024.03,1,-3,-3,1
4024.03,0,-4,-3,3
4024.03,4,-3,-1,6
4024.03,7,0,1,8
4024.03,8,2,2,7
4024.03,9,4,4,8
4024.03,9,5,5,7
4024.03,7,4,3,4
4024.03,5,4,2,2
4024.03,3,3,2,0
4024.03,1,1,0,0
4024.04,2,2,0,-1
4024.04,3,6,2,-1
4024.04,2,9,5,-1
4024.04,2,10,7,-1
4024.04,1,8,5,-2
4024.04,0,7,5,-3
4024.04,-2,5,5,-2
4024.04,-2,4,4,-2
4024.04,-4,1,2,0
4024.04,-3,0,3,1
4024.04,0,1,6,4
4024.04,1,2,6,5
4024.04,0,0,4,3
4024.04,-1,-1,2,2
4024.04,0,-1,0,2
4024.04,3,0,-3,0
4024.04,5,2,-4,-1
4024.05,7,4,-3,0
4024.05,9,8,0,2
4024.05,11,9,2,3
4024.05,11,10,1,4
4024.05,10,9,4,5
4024.05,8,8,6,6
4024.05,7,6,6,7
4024.05,4,1,2,5
4024.05,1,-3,0,5
4024.05,1,-5,-1,5
4024.05,1,-5,-1,5
4024.05,1,-7,-4,3
4024.05,3,-3,-2,3
4024.05,5,0,0,5
4024.05,8,4,2,4
4024.05,8,6,3,2
4024.05,5,6,0,0
4024.05,5,6,2,1
4024.06,6,11,7,1
4024.06,5,11,7,0
4024.06,1,9,7,-1
4024.06,-1,7,6,-3
4024.06,-3,5,5,-3
4024.06,-4,3,4,-3
4024.06,-4,2,3,-2
4024.06,-4,1,3,-1
4024.06,-3,0,0,-1
4024.06,0,0,-1,-1
4024.06,1,2,0,0
4024.06,3,4,2,2
4024.06,4,4,2,3
4024.06,5,6,7,8
4024.06,7,8,8,8
4024.06,7,6,6,7
4024.06,5,3,6,5
4024.07,1,0,3,5
4024.07,0,-1,3,6
4024.07,1,0,5,6
4024.07,1,0,2,3
4024.07,1,0,0,0
4024.07,0,-1,0,1
4024.07,0,-3,-3,0
4024.07,1,-2,-6,0
4024.07,3,-2,-4,3
4024.07,7,0,-1,6
4024.07,9,1,-1,6
4024.07,10,3,0,8
4024.07,11,5,2,8
4024.07,11,6,4,8
4024.07,10,7,3,4
4024.07,7,5,1,1
4024.07,5,6,2,1
4024.07,5,6,3,1
4024.08,4,9,5,0
4024.08,1,7,6,-1
4024.08,0,8,5,-3
4024.08,-2,5,3,-5
4024.08,-3,5,2,-7
4024.08,-5,3,0,-8
4024.08,-6,1,0,-6
4024.08,-3,3,2,-2
4024.08,0,3,3,1
4024.08,2,5,5,3
4024.08,4,5,5,4
4024.08,4,4,4,4
4024.08,5,4,4,5
4024.08,4,4,5,6
4024.08,6,4,5,5
4024.08,3,0,1,2
4024.08,1,-1,0,1
4024.09,1,0,0,3
4024.09,4,1,1,4
4024.09,5,3,3,5
4024.09,4,2,2,4
4024.09,5,2,1,2
4024.09,3,2,1,2
4024.09,3,2,1,3
4024.09,2,-2,-1,2
4024.09,2,-2,-2,5
4024.09,4,-2,-1,6
4024.09,6,0,0,8
4024.09,8,0,0,6
4024.09,7,1,0,4
4024.09,6,2,0,3
4024.09,7,5,4,5
4024.09,7,7,7,7
4024.09,8,8,9,7
4024.1,5,6,9,5
4024.1,2,7,10,3
4024.1,-1,5,7,0
4024.1,-4,2,3,-4
4024.1,-7,-2,-3,-11
4024.1,-8,-2,-6,-14
4024.1,-6,0,-7,-13
4024.1,-3,2,-7,-11
4024.1,1,7,-2,-5
4024.1,7,10,0,0
4024.1,11,16,12,11
4024.1,15,17,17,14
4024.1,12,11,11,10
4024.1,7,5,5,6
4024.1,3,2,4,5
4024.1,1,0,2,2
4024.1,-1,-3,0,0
4024.1,-1,-3,-1,0
4024.11,0,-1,0,1
4024.11,1,0,0,1
4024.11,2,0,0,0
4024.11,2,0,0,2
4024.11,4,3,3,4
4024.11,5,4,4,6
4024.11,5,2,1,4
4024.11,2,-2,-1,3
4024.11,2,-4,-2,4
4024.11,5,0,0,7
4024.11,7,1,1,8
4024.11,8,3,3,8
4024.11,7,0,-1,4
4024.11,6,2,0,4
4024.11,7,6,4,5
4024.11,7,6,3,2
4024.11,5,4,0,-1
4024.12,3,7,1,-2
4024.12,2,9,3,-2
4024.12,2,9,6,-1
4024.12,1,8,6,-2
4024.12,0,6,6,-1
4024.12,-1,8,8,0
4024.12,-1,7,12,2
4024.12,-2,7,12,2
4024.12,-4,0,3,-2
4024.12,-7,-5,-3,-5
4024.12,-5,-3,-1,-2
4024.12,-3,-2,-2,-1
4024.12,0,0,0,1
4024.12,3,3,2,4
4024.12,6,5,4,6
4024.12,9,7,5,7
4024.12,8,6,4,5
4024.12,7,6,5,5
4024.13,5,4,6,7
4024.13,5,5,7,8
4024.13,5,3,4,5
4024.13,2,0,1,1
4024.13,-1,-3,-3,0
4024.13,0,-1,-1,0
4024.13,3,-1,-5,-1
4024.13,2,-6,-16,-8
4024.13,4,-2,-12,-3
4024.13,10,8,1,7
4024.13,14,8,5,12
4024.13,16,9,9,14
4024.13,14,9,9,13
4024.13,12,5,5,7
4024.13,6,3,3,3
4024.13,2,1,1,0
4024.13,0,1,3,1
4024.14,2,6,5,0
4024.14,1,6,4,-3
4024.14,-2,4,2,-5
4024.14,-5,3,2,-4
4024.14,-4,4,5,-2
4024.14,-2,6,6,-1
4024.14,-1,7,8,0
4024.14,0,5,6,0
4024.14,-4,0,0,-3
4024.14,-3,0,1,0
4024.14,0,2,3,2
4024.14,3,3,2,2
4024.14,2,1,0,1
4024.14,2,0,-2,0
4024.14,5,3,0,2
4024.14,6,6,3,6
4024.14,9,8,4,6
4024.15,8,7,3,4
4024.15,7,4,0,2
4024.15,6,4,0,2
4024.15,6,4,2,4
4024.15,6,6,6,6
4024.15,5,4,4,5
4024.15,2,0,2,3
4024.15,0,-4,-2,2
4024.15,0,-7,-5,1
4024.15,0,-6,-4,3
4024.15,4,-1,-1,6
4024.15,6,0,0,7
4024.15,9,3,3,7
4024.15,9,4,3,7
4024.15,8,5,3,3
4024.15,5,4,2,2
4024.15,5,6,3,2
4024.15,4,6,2,0
4024.16,4,8,4,0
4024.16,2,8,4,-1
4024.16,0,7,4,-3
4024.16,0,8,5,-2
4024.16,0,9,7,-2
4024.16,-1,7,7,-1
4024.16,-2,4,4,-2
4024.16,-3,2,3,-2
4024.16,-4,-1,0,0
4024.16,-1,0,0,-1
4024.16,0,0,0,0
4024.16,0,1,1,2
4024.16,3,3,3,4
4024.16,6,5,5,6
4024.16,7,5,4,5
4024.16,5,4,3,4
4024.16,4,3,3,4
4024.17,4,3,4,6
4024.17,5,4,4,5
4024.17,5,3,2,4
4024.17,3,1,0,1
4024.17,1,0,0,0
4024.17,2,0,0,1
4024.17,3,0,-1,1
4024.17,2,-1,-3,2
4024.17,2,-3,-3,4
4024.17,6,0,-2,6
4024.17,8,1,0,7
4024.17,9,2,2,9
4024.17,10,5,5,9
4024.17,9,6,6,8
4024.17,7,7,7,7
4024.17,4,4,5,4
4024.17,1,3,3,1
4024.18,1,2,1,-1
4024.18,-1,2,1,-4
4024.18,-1,4,0,-5
4024.18,-1,5,1,-5
4024.18,0,7,1,-5
4024.18,0,9,4,-2
4024.18,1,10,7,0
4024.18,0,8,8,1
4024.18,0,7,10,3
4024.18,-1,2,5,3
4024.18,-1,-1,-1,-2
4024.18,-2,-2,-4,-3
4024.18,0,0,-3,-2
4024.18,2,2,0,1
4024.18,5,4,2,4
4024.18,8,6,4,6
4024.18,8,6,3,4
4024.18,7,5,2,4
4024.19,7,7,10,10
4024.19,7,6,9,8
4024.19,4,1,2,3
4024.19,2,0,0,0
4024.19,0,-1,0,0
4024.19,0,-1,-2,-1
4024.19,0,-2,-3,0
4024.19,0,-4,-3,3
4024.19,4,-1,-2,6
4024.19,7,0,-2,5
4024.19,8,0,-2,5
4024.19,9,3,0,7
4024.19,10,5,2,8
4024.19,13,10,8,10
4024.19,12,11,8,6
4024.19,6,6,4,1
4024.19,1,3,1,0
4024.2,0,5,5,0
4024.2,1,6,5,0
4024.2,0,6,5,-3
4024.2,-2,4,4,-4
4024.2,-3,5,4,-3
4024.2,-3,4,4,-3
4024.2,-4,3,4,-3
4024.2,-3,3,4,-3
4024.2,-4,0,1,-2
4024.2,-3,0,1,0
4024.2,0,1,2,1
4024.2,2,3,3,4
4024.2,4,4,4,4
4024.2,4,5,5,5
4024.2,6,5,5,6
4024.2,6,4,4,5
4024.2,6,3,0,2
4024.21,5,2,-2,0
4024.21,7,3,-4,-1
4024.21,7,5,-4,-1
4024.21,8,7,-1,1
4024.21,9,10,5,5
4024.21,7,9,11,10
4024.21,6,6,10,9
4024.21,2,0,5,6
4024.21,0,-7,-2,3
4024.21,-1,-8,-6,1
4024.21,-1,-7,-5,1
4024.21,0,-5,-2,5
4024.21,6,0,0,6
4024.21,8,3,1,6
4024.21,9,7,5,7
4024.21,8,8,7,6
4024.21,6,6,5,3
4024.21,4,5,4,0
4024.22,1,6,5,0
4024.22,0,5,4,-1
4024.22,-1,3,0,-6
4024.22,-1,5,1,-5
4024.22,-1,8,5,-1
4024.22,0,7,5,-1
4024.22,-1,4,1,-4
4024.22,-1,4,2,-3
4024.22,0,3,4,0
4024.22,1,5,6,4
4024.22,3,4,5,4
4024.22,3,4,5,4
4024.22,3,4,4,3
4024.22,3,2,2,3
4024.22,3,2,1,2
4024.22,3,1,1,3
4024.22,3,0,0,2
4024.22,5,3,1,4
4024.23,5,3,2,5
4024.23,5,3,1,4
4024.23,5,2,0,3
4024.23,3,1,1,3
4024.23,4,1,0,2
4024.23,3,1,0,2
4024.23,3,0,-1,3
4024.23,3,-2,-2,5
4024.23,5,-2,-1,6
4024.23,6,0,0,6
4024.23,5,0,0,6
4024.23,6,1,3,7
4024.23,8,4,4,7
4024.23,7,6,4,5
4024.23,7,7,6,6
4024.23,6,6,4,3
4024.23,4,5,3,0
4024.24,3,6,4,-1
4024.24,0,6,3,-3
4024.24,0,7,4,-4
4024.24,-1,6,4,-4
4024.24,-2,7,4,-5
4024.24,-4,5,4,-5
4024.24,-4,4,3,-4
4024.24,-3,2,3,-2
4024.24,-3,0,1,-1
4024.24,-1,0,1,0
4024.24,0,1,3,3
4024.24,2,4,7,7
4024.24,5,5,7,8
4024.24,6,4,4,5
4024.24,6,4,4,4
4024.24,4,4,3,3
4024.24,3,2,0,1
4024.25,3,2,0,0
4024.25,4,3,0,0
4024.25,4,3,0,1
4024.25,4,3,0,0
4024.25,3,0,-2,0
4024.25,3,0,-1,2
4024.25,7,3,3,7
4024.25,7,2,2,8
4024.25,7,0,0,7
4024.25,6,-1,0,7
4024.25,6,-1,0,6
4024.25,5,-1,0,6
4024.25,6,1,2,7
4024.25,6,3,3,6
4024.25,7,5,3,4
4024.25,6,5,2,2
4024.25,4,5,3,0
4024.25,3,6,3,0
4024.26,2,7,4,-1
4024.26,0,7,3,-4
4024.26,-1,6,2,-4
4024.26,-2,4,0,-7
4024.26,-3,6,2,-5
4024.26,-3,5,5,-2
4024.26,0,7,5,0
4024.26,1,6,6,1
4024.26,1,4,3,0
4024.26,1,5,6,4
4024.26,1,3,7,5
4024.26,1,1,3,3
4024.26,2,1,1,2
4024.26,1,1,0,1
4024.26,1,0,0,0
4024.26,0,0,0,2
4024.26,2,2,1,4
4024.27,5,3,3,5
4024.27,7,4,3,5
4024.27,6,3,2,3
4024.27,4,2,1,2
4024.27,3,3,2,3
4024.27,5,3,2,3
4024.27,4,1,0,3
4024.27,1,-3,-4,1
4024.27,1,-4,-4,3
4024.27,5,-1,-1,7
4024.27,8,0,0,8
4024.27,10,3,2,8
4024.27,10,4,3,6
4024.27,8,4,3,5
4024.27,7,6,4,3
4024.27,4,5,3,2
4024.27,4,5,3,0
4024.27,2,5,3,-1
4024.28,0,5,3,-2
4024.28,0,6,3,-2
4024.28,0,7,5,-2
4024.28,-1,7,4,-3
4024.28,0,6,3,-4
4024.28,-1,6,3,-2
4024.28,-1,5,2,-3
4024.28,-2,2,0,-2
4024.28,-1,2,1,0
4024.28,0,4,5,3
4024.28,2,4,5,3
4024.28,2,2,4,4
4024.28,2,0,1,3
4024.28,3,0,0,4
4024.28,5,1,0,3
4024.28,6,2,0,2
4024.28,6,3,0,2
4024.29,6,4,1,4
4024.29,7,9,7,8
4024.29,10,9,10,8
4024.29,5,4,5,5
4024.29,3,1,1,3
4024.29,2,1,1,3
4024.29,1,0,0,3
4024.29,1,-4,-2,3
4024.29,1,-5,-4,3
4024.29,3,-3,-4,2
4024.29,4,-3,-6,1
4024.29,6,0,-2,4
4024.29,8,4,2,7
4024.29,8,7,5,8
4024.29,8,7,6,6
4024.29,5,3,1,2
4024.29,2,3,3,2
4024.29,4,9,10,4
4024.3,3,10,9,0
4024.3,-1,8,8,-2
4024.3,-3,6,6,-4
4024.3,-4,7,6,-6
4024.3,-6,3,2,-7
4024.3,-8,-1,0,-6
4024.3,-4,0,0,-4
4024.3,-2,2,2,0
4024.3,2,4,2,0
4024.3,2,3,0,0
4024.3,3,4,2,4
4024.3,5,2,0,2
4024.3,3,-2,-4,0
4024.3,2,0,0,5
4024.3,7,6,5,11
4024.3,14,12,9,12
4024.3,16,13,8,10
4024.31,12,7,2,2
4024.31,5,2,0,0
4024.31,1,0,0,0
4024.31,0,0,0,0
4024.31,1,3,4,3
4024.31,2,4,3,2
4024.31,0,-2,-2,0
4024.31,-4,-8,-5,0
4024.31,-1,-4,-1,6
4024.31,6,1,4,11
4024.31,11,4,4,13
4024.31,13,7,6,11
4024.31,11,6,4,9
4024.31,8,4,4,6
4024.31,5,2,2,0
4024.31,1,1,-1,-4
4024.31,0,3,0,-6
4024.32,-1,5,1,-6
4024.32,-2,6,3,-4
4024.32,-1,7,5,-2
4024.32,0,7,7,0
4024.32,0,7,9,1
4024.32,-3,-1,0,-4
4024.32,-7,-5,-3,-3
4024.32,-3,-2,-1,-1
4024.32,0,0,1,2
4024.32,5,8,8,6
4024.32,8,8,5,4
4024.32,5,2,0,2
4024.32,6,5,2,4
4024.32,7,8,9,10
4024.32,10,9,8,8
4024.32,9,6,3,3
4024.32,3,0,-4,-2
4024.32,0,-2,-5,-3
4024.33,0,-1,-3,-2
4024.33,0,0,0,2
4024.33,4,4,5,6
4024.33,7,7,6,5
4024.33,6,9,8,3
4024.33,4,10,8,0
4024.33,-2,0,0,-2
4024.33,-7,-8,-4,-3
4024.33,-7,-9,-5,0
4024.33,-4,-11,-8,1
4024.33,2,-2,0,11
4024.33,16,11,9,16
4024.33,21,17,11,13
4024.33,17,16,13,11
4024.33,12,10,8,8
4024.33,7,6,4,3
4024.33,3,6,7,3
4024.34,2,6,6,0
4024.34,0,4,4,-1
4024.34,-3,1,1,-5
4024.34,-7,-2,-3,-8
4024.34,-7,-1,-3,-8
4024.34,-4,3,3,0
4024.34,0,0,-4,-5
4024.34,2,4,-2,-3
4024.34,4,8,4,2
4024.34,5,7,4,3
4024.34,5,6,8,9
4024.34,6,2,5,11
4024.34,6,-2,-1,7
4024.34,6,-5,-9,0
4024.34,7,-1,-9,-2
4024.34,8,0,-14,-13
4024.34,0,3,-7,-13
4024.34,-1,7,0,-8
4024.35,-6,1,1,-4
4024.35,-8,-3,6,5
4024.35,0,4,16,18
4024.35,13,19,27,25
4024.35,22,29,33,25
4024.35,14,12,13,9
4024.35,1,-3,0,1
4024.35,0,-1,2,2
4024.35,0,-3,0,2
4024.35,-1,-6,-5,0
4024.35,-2,-11,-12,-7
4024.35,-7,-12,-11,-5
4024.35,-2,-6,-5,5
4024.35,7,0,0,11
4024.35,11,0,0,16
4024.35,16,-2,-4,13
4024.35,17,-2,-9,7
4024.36,19,7,-8,0
4024.36,16,11,-7,-8
4024.36,7,9,-7,-12
4024.36,1,12,1,-11
4024.36,-1,20,17,-3
4024.36,-1,21,23,0
4024.36,-5,15,22,0
4024.36,-11,10,21,0
4024.36,-11,7,14,-6
4024.36,-11,5,8,-7
4024.36,-9,6,6,-5
4024.36,-7,-1,-1,-3
4024.36,0,4,4,7
4024.36,13,15,12,12
4024.36,13,5,-1,3
4024.36,3,-8,-13,-5
4024.36,-6,-19,-18,-4
4024.36,-6,-22,-18,2
4024.37,2,-11,-7,10
4024.37,13,5,9,21
4024.37,22,15,18,24
4024.37,27,28,28,23
4024.37,22,27,18,5
4024.37,5,9,1,-8
4024.37,-8,-4,-3,-8
4024.37,-11,-3,4,3
4024.37,-6,-6,0,2
4024.37,-6,-16,-13,-4
4024.37,-8,-20,-20,-7
4024.37,-5,-16,-14,-1
4024.37,0,-9,-8,4
4024.37,4,-8,-7,6
4024.37,9,1,1,10
4024.37,15,17,18,21
4024.37,29,33,27,20
4024.38,24,24,13,4
4024.38,8,8,-2,-9
4024.38,0,9,3,-5
4024.38,3,19,14,-1
4024.38,6,22,14,-4
4024.38,0,14,4,-12
4024.38,-5,9,0,-17
4024.38,-5,17,6,-17
4024.38,-12,6,0,-21
4024.38,-17,1,0,-14
4024.38,-17,-5,0,-7
4024.38,-12,-7,4,8
4024.38,1,-3,3,4
4024.38,-5,-5,9,13
4024.38,-3,-13,8,29
4024.38,11,-12,5,37
4024.38,22,-10,0,33
4024.39,27,-2,-2,24
4024.39,29,8,-2,12
4024.39,24,10,-9,-5
4024.39,5,-4,-21,-17
4024.39,-1,-4,-16,-11
4024.39,3,7,1,5
4024.39,13,12,7,6
4024.39,6,1,-3,-1
4024.39,0,-6,-12,-8
4024.39,1,4,-3,-5
4024.39,1,5,-4,-12
4024.39,-7,0,0,-4
4024.39,-6,-3,0,-3
4024.39,-6,-2,2,0
4024.39,-1,4,6,0
4024.39,1,9,8,0
4024.39,-1,4,4,-1
4024.4,0,6,7,6
4024.4,10,13,11,11
4024.4,14,14,9,12
4024.4,20,21,16,17
4024.4,23,24,18,7
4024.4,8,18,19,4
4024.4,-2,7,9,-6
4024.4,-17,-6,2,-10
4024.4,-16,6,20,2
4024.4,-5,17,29,8
4024.4,-3,13,23,6
4024.4,-8,-1,4,-3
4024.4,-14,-15,-12,-9
4024.4,-13,-21,-18,-6
4024.4,-3,-17,-17,6
4024.4,18,0,-8,17
4024.4,37,22,10,29
4024.4,41,22,11,24
4024.41,22,0,-5,4
4024.41,-5,-21,-18,-13
4024.41,-20,-19,-7,-5
4024.41,-11,-4,6,2
4024.41,-7,-2,9,9
4024.41,0,-1,9,11
4024.41,0,-9,-3,3
4024.41,0,2,13,14
4024.41,6,11,23,14
4024.41,0,0,11,9
4024.41,-2,-7,-1,3
4024.41,0,-9,-13,-4
4024.41,3,-3,-11,0
4024.41,12,2,-15,-10
4024.41,3,-9,-36,-27
4024.41,2,-8,-43,-27
4024.41,20,13,-36,-30
4024.42,24,39,6,-7
4024.42,20,45,33,7
4024.42,9,34,39,14
4024.42,6,31,40,15
4024.42,4,27,37,14
4024.42,-1,16,26,9
4024.42,-3,8,19,4
4024.42,-10,0,15,7
4024.42,-12,-11,7,8
4024.42,-9,-14,-1,5
4024.42,-5,-21,-22,-8
4024.42,0,-14,-21,-2
4024.42,8,-8,-20,-2
4024.42,7,-10,-23,-7
4024.42,6,-4,-17,-10
4024.42,-3,-4,0,9
4024.42,12,1,-3,7
4024.42,15,10,8,21
4024.43,33,32,28,27
4024.43,28,24,15,6
4024.43,6,10,4,-8
4024.43,-6,6,4,-10
4024.43,-14,-6,-4,-16
4024.43,-22,-14,-3,-3
4024.43,-15,-23,-16,-7
4024.43,-11,-15,-7,4
4024.43,5,3,9,16
4024.43,15,13,13,12
4024.43,14,19,17,8
4024.43,10,18,17,8
4024.43,5,13,16,11
4024.43,6,5,9,11
4024.43,3,-2,4,12
4024.43,5,-5,-1,5
4024.43,-1,-12,-11,-6
4024.44,-11,-21,-21,-13
4024.44,-5,-1,-2,0
4024.44,12,22,18,14
4024.44,22,28,19,15
4024.44,22,25,12,5
4024.44,8,6,-10,-22
4024.44,-18,-16,-25,-37
4024.44,-32,-16,-10,-17
4024.44,-15,0,8,0
4024.44,-3,14,26,19
4024.44,13,21,29,25
4024.44,19,17,16,19
4024.44,19,12,5,8
4024.44,14,7,-3,-4
4024.44,1,2,-5,-9
4024.44,-7,-2,-3,-7
4024.44,-7,-3,-6,-16
4024.44,-15,0,5,-3
4024.45,-5,7,11,0
4024.45,-3,6,6,-5
4024.45,-6,5,12,6
4024.45,3,9,18,24
4024.45,21,13,11,18
4024.45,20,8,-1,8
4024.45,13,-2,-11,4
4024.45,16,0,-10,7
4024.45,19,2,-10,4
4024.45,14,-6,-19,-8
4024.45,-7,-28,-27,-6
4024.45,-7,-28,-20,4
4024.45,0,-16,0,17
4024.45,4,-11,2,16
4024.45,5,-6,5,18
4024.45,16,14,19,21
4024.45,25,31,27,19
4024.46,23,29,17,3
4024.46,11,20,4,-14
4024.46,-5,9,-10,-36
4024.46,-20,9,-4,-32
4024.46,-16,15,8,-13
4024.46,-5,6,-9,-30
4024.46,-24,-13,-23,-36
4024.46,-30,-15,-9,-9
4024.46,-6,5,14,13
4024.46,9,19,32,28
4024.46,15,16,28,21
4024.46,5,7,22,25
4024.46,18,17,25,28
4024.46,26,22,18,12
4024.46,6,2,0,-7
4024.46,-11,-6,-7,-16
4024.46,-20,-11,-7,-17
4024.47,-20,-7,-2,-11
4024.47,-10,5,13,12
4024.47,13,15,16,19
4024.47,22,15,9,16
4024.47,21,11,1,9
4024.47,13,0,-10,-2
4024.47,-1,-19,-26,-12
4024.47,-7,-17,-16,1
4024.47,7,-4,-7,7
4024.47,15,8,6,16
4024.47,23,18,13,20
4024.47,25,14,3,5
4024.47,2,-4,0,9
4024.47,5,0,6,11
4024.47,1,-7,-5,-3
4024.47,-12,-19,-17,-19
4024.47,-27,-28,-22,-19
4024.47,-18,-10,-4,-4
4024.48,3,21,27,19
4024.48,23,37,43,35
4024.48,33,33,30,27
4024.48,22,15,6,-1
4024.48,0,3,-4,-14
4024.48,-9,3,-1,-13
4024.48,-8,4,4,-5
4024.48,-1,8,5,-4
4024.48,-3,0,-5,-12
4024.48,-12,-11,-13,-12
4024.48,-8,-7,-8,-5
4024.48,4,5,1,4
4024.48,11,6,2,6
4024.48,10,1,-4,0
4024.48,0,-4,-6,-7
4024.48,-5,0,3,0
4024.48,-1,3,6,4
4024.49,4,5,3,1
4024.49,3,3,-1,-5
4024.49,-2,3,5,3
4024.49,5,13,17,16
4024.49,17,20,17,10
4024.49,9,15,14,9
4024.49,7,7,7,12
4024.49,11,-1,-6,4
4024.49,6,-7,-9,5
4024.49,7,-6,-9,7
4024.49,10,-3,-2,15
4024.49,19,7,4,20
4024.49,22,7,2,14
4024.49,15,3,-1,4
4024.49,1,-7,-6,2
4024.49,-3,-16,-13,0
4024.49,1,-8,-5,10
4024.49,15,4,-5,-3
4024.5,1,-3,-14,-21
4024.5,-13,-4,-10,-22
4024.5,-17,-1,-2,-19
4024.5,-17,7,14,0
4024.5,0,25,30,8
4024.5,3,22,22,-5
4024.5,-14,4,11,-6
4024.5,-14,0,9,0
4024.5,-4,7,12,3
4024.5,0,10,12,4
4024.5,2,8,8,0
4024.5,0,4,3,-3
4024.5,0,7,9,5
4024.5,8,16,17,14
4024.5,14,14,12,14
4024.5,14,6,4,10
4024.5,12,3,0,6
4024.51,6,0,0,9
4024.51,8,-3,-6,2
4024.51,2,-5,-8,-3
4024.51,0,-5,-7,-2
4024.51,0,-3,-6,0
4024.51,3,-1,-2,3
4024.51,2,-9,-9,1
4024.51,1,-11,-12,2
4024.51,4,-7,-7,7
4024.51,7,-7,-5,11
4024.51,14,0,1,17
4024.51,19,6,4,16
4024.51,18,7,3,9
4024.51,11,8,5,7
4024.51,10,12,9,7
4024.51,9,11,8,3
4024.51,5,9,4,-4
4024.52,-1,7,4,-8
4024.52,-5,6,3,-9
4024.52,-5,9,6,-8
4024.52,-5,9,7,-7
4024.52,-4,10,7,-8
4024.52,-9,3,1,-13
4024.52,-11,1,2,-10
4024.52,-10,0,4,-1
4024.52,-3,-1,-1,-5
4024.52,-5,-1,1,2
4024.52,3,4,6,9
4024.52,8,6,7,10
4024.52,11,6,6,10
4024.52,10,5,3,8
4024.52,8,1,-1,4
4024.52,4,-2,-3,3
4024.52,4,0,-1,5
4024.52,8,3,3,9
4024.53,11,5,3,8
4024.53,9,3,1,6
4024.53,7,1,0,5
4024.53,7,0,0,5
4024.53,6,0,-1,4
4024.53,2,-5,-6,0
4024.53,-1,-12,-9,3
4024.53,3,-7,-4,9
4024.53,8,-3,0,11
4024.53,7,-7,-6,6
4024.53,7,-3,-2,8
4024.53,9,1,0,8
4024.53,12,9,6,8
4024.53,12,11,8,9
4024.53,11,12,9,6
4024.53,10,11,7,2
4024.53,5,10,5,-4
4024.54,0,9,5,-8
4024.54,-2,13,9,-7
4024.54,-3,14,13,-4
4024.54,-4,12,12,-6
4024.54,-8,9,8,-9
4024.54,-12,3,2,-14
4024.54,-15,1,2,-12
4024.54,-13,-1,0,-7
4024.54,-7,0,0,-2
4024.54,0,0,0,0
4024.54,4,5,2,3
4024.54,7,6,2,3
4024.54,7,5,2,5
4024.54,9,7,5,8
4024.54,10,7,6,8
4024.54,7,4,6,10
4024.54,8,4,5,8
4024.54,5,1,3,6
4024.55,4,1,2,2
4024.55,1,2,1,-1
4024.55,-2,2,2,0
4024.55,-1,0,0,-2
4024.55,-2,-1,-2,-2
4024.55,-2,-6,-5,1
4024.55,0,-10,-7,6
4024.55,6,-5,-5,11
4024.55,13,0,1,13
4024.55,14,0,0,13
4024.55,17,6,4,15
4024.55,20,9,3,12
4024.55,16,5,-2,4
4024.55,11,8,0,0
4024.55,7,8,1,0
4024.55,4,5,-4,-8
4024.55,3,13,6,-4
4024.56,2,17,11,-4
4024.56,0,18,13,-5
4024.56,-5,15,19,-2
4024.56,-8,14,22,-1
4024.56,-14,1,10,-7
4024.56,-21,-9,1,-8
4024.56,-17,-9,-3,-10
4024.56,-13,-9,-9,-12
4024.56,-9,-6,-7,-7
4024.56,-1,4,5,6
4024.56,9,9,6,6
4024.56,9,4,-5,-3
4024.56,7,6,0,3
4024.56,14,21,19,16
4024.56,15,14,12,9
4024.56,5,5,7,6
4024.56,2,3,7,8
4024.56,2,0,3,7
4024.57,0,-7,-1,6
4024.57,1,-8,-5,2
4024.57,4,0,-4,-1
4024.57,4,2,-3,-2
4024.57,2,0,-5,-3
4024.57,-2,-8,-9,-1
4024.57,0,-6,-3,7
4024.57,8,0,6,18
4024.57,13,1,8,21
4024.57,16,0,4,17
4024.57,16,3,3,12
4024.57,13,9,13,18
4024.57,15,16,21,20
4024.57,14,17,24,19
4024.57,7,5,11,4
4024.57,-5,-5,-4,-13
4024.57,-15,-5,-4,-17
4024.58,-17,-5,-9,-23
4024.58,-16,1,0,-16
4024.58,-12,0,-9,-21
4024.58,-10,1,-15,-26
4024.58,-9,0,-21,-29
4024.58,-5,6,-14,-18
4024.58,9,21,5,0
4024.58,18,30,25,21
4024.58,26,33,35,28
4024.58,21,22,27,23
4024.58,13,8,12,12
4024.58,7,12,22,19
4024.58,5,0,7,4
4024.58,-9,-22,-25,-19
4024.58,-15,-23,-29,-20
4024.58,-8,-14,-23,-14
4024.58,-1,1,3,8
4024.59,9,11,18,21
4024.59,13,12,18,17
4024.59,9,6,10,10
4024.59,2,0,4,3
4024.59,-3,-9,-8,-5
4024.59,-8,-14,-15,-10
4024.59,-6,-13,-15,0
4024.59,7,-2,-7,6
4024.59,15,5,0,9
4024.59,14,1,-3,9
4024.59,16,5,1,14
4024.59,22,14,11,19
4024.59,22,19,21,21
4024.59,16,13,13,8
4024.59,0,-1,1,0
4024.59,-4,-2,1,2
4024.59,2,7,9,8
4024.59,6,15,20,11
4024.6,1,0,-2,-12
4024.6,-16,-16,-25,-31
4024.6,-21,-3,5,-3
4024.6,-6,4,12,4
4024.6,-2,4,7,1
4024.6,1,11,14,5
4024.6,-1,-4,-11,-16
4024.6,-9,-9,-26,-26
4024.6,-4,5,-9,-11
4024.6,9,20,11,5
4024.6,14,20,15,11
4024.6,12,10,0,1
4024.6,9,3,-12,-10
4024.6,5,4,-8,-7
4024.6,6,12,9,9
4024.6,13,23,34,32
4024.6,20,16,24,24
4024.61,13,5,5,7
4024.61,4,0,0,2
4024.61,-1,-5,-2,-1
4024.61,-5,-3,6,7
4024.61,-3,1,21,19
4024.61,-5,-12,3,5
4024.61,-17,-25,-5,4
4024.61,-14,-25,-5,5
4024.61,-12,-33,-31,-14
4024.61,-11,-22,-18,0
4024.61,7,5,13,24
4024.61,19,9,10,16
4024.61,15,-1,-15,-9
4024.61,5,-6,-30,-20
4024.61,14,17,-2,5
4024.61,35,42,28,26
4024.61,42,43,24,15
4024.61,27,32,20,7
4024.62,12,21,15,1
4024.62,3,14,5,-10
4024.62,-5,9,3,-16
4024.62,-15,-1,-4,-20
4024.62,-19,-6,-5,-16
4024.62,-15,-3,1,-5
4024.62,-11,-10,-5,-5
4024.62,-9,-13,-7,-3
4024.62,-7,-10,-6,0
4024.62,-1,-5,-2,4
4024.62,5,3,3,8
4024.62,12,8,4,7
4024.62,13,10,2,3
4024.62,9,10,7,6
4024.62,8,9,11,10
4024.62,5,5,8,7
4024.62,3,1,5,7
4024.63,3,3,8,10
4024.63,3,-3,-4,0
4024.63,1,-1,0,4
4024.63,5,4,4,9
4024.63,8,3,2,5
4024.63,4,-3,-4,2
4024.63,1,-7,-5,4
4024.63,2,-6,0,11
4024.63,4,-6,-1,12
4024.63,9,3,14,24
4024.63,15,3,8,14
4024.63,6,-7,-12,-5
4024.63,-1,-4,-10,-7
4024.63,0,1,-2,-3
4024.63,0,3,3,2
4024.63,2,9,14,8
4024.63,5,10,13,6
4024.64,3,10,10,1
4024.64,1,9,5,-6
4024.64,-4,2,-6,-17
4024.64,-7,4,-4,-15
4024.64,-3,12,5,-5
4024.64,2,13,7,-1
4024.64,4,12,3,-3
4024.64,3,4,-5,-6
4024.64,3,4,-4,-3
4024.64,8,11,8,7
4024.64,10,13,12,9
4024.64,6,8,12,9
4024.64,4,6,15,13
4024.64,1,0,9,8
4024.64,-2,-1,9,8
4024.64,-4,-2,13,9
4024.64,-7,-6,7,7
4024.64,-8,-12,-3,-1
4024.65,-8,-13,-12,-8
4024.65,-6,-10,-17,-12
4024.65,-4,-9,-20,-13
4024.65,4,3,-9,-2
4024.65,17,14,-2,4
4024.65,19,13,0,7
4024.65,20,13,5,14
4024.65,21,12,8,17
4024.65,21,12,10,16
4024.65,16,8,8,12
4024.65,9,2,6,9
4024.65,3,-1,2,5
4024.65,0,-2,0,0
4024.65,-1,0,2,1
4024.65,0,1,1,0
4024.65,-2,0,0,-3
4024.65,-2,4,4,-2
4024.66,-1,8,7,-2
4024.66,-2,11,15,1
4024.66,-2,11,14,1
4024.66,-3,8,7,-6
4024.66,-7,3,4,-7
4024.66,-9,-3,-6,-14
4024.66,-11,-8,-15,-18
4024.66,-8,-1,-10,-10
4024.66,1,2,-8,-6
4024.66,7,8,-1,1
4024.66,12,13,8,10
4024.66,16,19,20,20
4024.66,17,12,9,10
4024.66,10,7,2,3
4024.66,8,11,7,6
4024.66,9,15,17,11
4024.66,5,5,5,1
4024.67,-2,0,4,1
4024.67,-2,5,16,11
4024.67,-2,0,15,11
4024.67,-10,-8,12,10
4024.67,-14,-19,0,2
4024.67,-15,-18,-1,2
4024.67,-13,-24,-15,-3
4024.67,-8,-23,-22,-6
4024.67,0,-11,-17,-1
4024.67,11,-4,-24,-7
4024.67,18,6,-16,0
4024.67,29,28,16,25
4024.67,39,36,32,34
4024.67,29,21,22,24
4024.67,15,5,5,7
4024.67,6,-3,-12,-9
4024.67,0,-5,-22,-22
4024.67,-4,1,-14,-18
4024.68,1,11,-4,-12
4024.68,5,15,-3,-12
4024.68,10,25,10,-1
4024.68,13,34,32,13
4024.68,8,22,28,10
4024.68,-5,4,16,1
4024.68,-15,-6,10,2
4024.68,-14,-8,9,4
4024.68,-13,-13,1,-2
4024.68,-17,-21,-12,-9
4024.68,-16,-19,-14,-9
4024.68,-4,-9,-15,-6
4024.68,4,1,-8,-1
4024.68,12,6,-8,-2
4024.68,14,12,-2,3
4024.68,19,17,10,14
4024.68,25,23,16,18
4024.69,22,22,21,19
4024.69,15,15,21,17
4024.69,4,5,16,13
4024.69,-1,1,15,11
4024.69,-4,-7,0,-1
4024.69,-12,-20,-22,-18
4024.69,-20,-28,-29,-17
4024.69,-13,-22,-24,-10
4024.69,-1,-8,-15,-2
4024.69,9,2,-2,10
4024.69,21,18,17,23
4024.69,26,22,24,26
4024.69,19,13,12,11
4024.69,8,10,12,8
4024.69,6,12,15,9
4024.69,3,11,19,11
4024.69,1,8,18,7
4024.69,-7,-3,3,-5
4024.7,-14,-8,-4,-12
4024.7,-16,-8,-3,-11
4024.7,-13,-11,-19,-22
4024.7,-8,0,-9,-15
4024.7,0,12,0,-9
4024.7,3,15,6,-1
4024.7,5,14,12,8
4024.7,11,14,13,9
4024.7,8,10,11,9
4024.7,4,2,4,5
4024.7,4,-4,-10,-3
4024.7,4,-3,-15,-7
4024.7,9,5,-4,-1
4024.7,10,8,0,0
4024.7,6,9,9,9
4024.7,8,13,24,21
4024.7,8,6,15,14
4024.71,3,-1,1,3
4024.71,0,-4,-3,0
4024.71,0,-2,-3,0
4024.71,1,0,0,1
4024.71,2,2,5,6
4024.71,1,-5,-4,1
4024.71,-1,-9,-9,0
4024.71,0,-7,-7,4
4024.71,6,-2,-6,3
4024.71,8,0,-6,3
4024.71,13,6,-3,3
4024.71,15,13,4,8
4024.71,17,21,21,18
4024.71,17,16,18,13
4024.71,8,7,5,1
4024.71,0,0,-2,-7
4024.71,-7,-2,-7,-13
4024.71,-8,0,-3,-11
4024.72,-4,5,1,-8
4024.72,-4,8,5,-3
4024.72,0,12,11,2
4024.72,4,15,13,2
4024.72,2,10,7,0
4024.72,-1,4,2,-3
4024.72,-4,0,-1,-3
4024.72,-2,0,0,0
4024.72,0,0,-2,-1
4024.72,1,0,-3,-1
4024.72,1,2,1,2
4024.72,4,6,7,8
4024.72,9,14,20,18
4024.72,9,11,21,17
4024.72,2,-2,5,4
4024.72,-7,-11,-8,-5
4024.72,-8,-12,-10,-6
4024.73,-2,-2,0,3
4024.73,5,3,4,9
4024.73,9,5,4,8
4024.73,10,6,3,4
4024.73,6,1,-3,-1
4024.73,0,-4,-4,0
4024.73,-1,-8,-6,2
4024.73,3,-2,0,8
4024.73,9,4,7,14
4024.73,13,7,9,13
4024.73,11,5,5,8
4024.73,6,2,4,7
4024.73,6,5,5,5
4024.73,5,4,3,2
4024.73,2,2,0,0
4024.73,1,2,-1,-2
4024.73,0,2,-1,-4
4024.74,1,4,-5,-10
4024.74,2,13,4,-5
4024.74,2,13,7,-3
4024.74,1,11,5,-5
4024.74,0,9,1,-8
4024.74,0,10,6,-3
4024.74,1,11,12,4
4024.74,0,5,8,3
4024.74,-1,0,4,2
4024.74,0,0,7,6
4024.74,0,2,9,8
4024.74,1,-2,1,3
4024.74,-1,-7,-7,-2
4024.74,-1,-9,-12,-4
4024.74,3,0,-4,0
4024.74,7,7,5,7
4024.74,12,12,9,8
4024.74,11,13,11,7
4024.75,6,7,5,3
4024.75,1,1,2,0
4024.75,-1,-1,0,0
4024.75,0,0,2,3
4024.75,2,0,2,5
4024.75,1,-8,-7,3
4024.75,4,-8,-10,3
4024.75,8,-4,-9,2
4024.75,8,-1,-6,5
4024.75,13,5,1,9
4024.75,16,12,8,12
4024.75,16,15,13,12
4024.75,13,13,11,6
4024.75,3,7,7,0
4024.75,-2,3,4,-1
4024.75,-2,3,5,-2
4024.75,-3,3,3,-4
4024.76,-3,4,3,-6
4024.76,-6,3,1,-7
4024.76,-6,3,3,-5
4024.76,-3,5,3,-4
4024.76,-1,5,2,-4
4024.76,-1,4,0,-5
4024.76,-2,2,-1,-4
4024.76,0,3,0,0
4024.76,4,8,7,5
4024.76,7,11,10,6
4024.76,5,6,7,3
4024.76,1,2,6,5
4024.76,0,0,4,5
4024.76,1,-1,3,5
4024.76,2,-1,0,4
4024.76,2,-3,-6,0
4024.76,4,1,0,4
4024.76,8,8,9,10
4024.77,9,6,6,6
4024.77,6,3,2,4
4024.77,4,3,0,1
4024.77,3,2,0,0
4024.77,2,-1,-5,-1
4024.77,1,-5,-10,-2
4024.77,3,-3,-7,2
4024.77,9,2,0,8
4024.77,11,5,5,11
4024.77,11,7,11,16
4024.77,10,5,11,14
4024.77,9,6,13,12
4024.77,4,3,11,9
4024.77,0,0,4,1
4024.77,-7,-9,-10,-12
4024.77,-9,-5,-7,-12
4024.77,-7,1,-3,-9
4024.78,-1,6,-2,-8
4024.78,2,11,3,-5
4024.78,4,13,3,-2
4024.78,5,12,8,2
4024.78,7,16,16,10
4024.78,7,12,12,4
4024.78,0,0,-1,-4
4024.78,-5,-3,-5,-4
4024.78,-1,-1,-4,-4
4024.78,0,4,4,3
4024.78,5,9,12,10
4024.78,8,11,16,15
4024.78,9,8,12,10
4024.78,4,1,3,2
4024.78,-1,-3,-1,0
4024.78,-4,-7,-6,-3
4024.78,-3,-5,-5,-1
4024.78,1,3,5,6
4024.79,5,2,0,0
4024.79,4,0,-7,-6
4024.79,2,4,-3,-3
4024.79,5,4,-2,0
4024.79,6,2,-1,5
4024.79,10,0,-6,4
4024.79,11,2,-1,6
4024.79,10,6,9,15
4024.79,9,-1,0,9
4024.79,10,2,1,9
4024.79,13,8,8,11
4024.79,11,10,12,11
4024.79,7,8,15,12
4024.79,1,3,13,11
4024.79,0,-4,-4,-6
4024.79,-6,-6,-11,-16
4024.79,-9,0,-1,-8
4024.8,-5,7,8,-1
4024.8,-3,7,7,-1
4024.8,0,8,8,-1
4024.8,0,7,3,-4
4024.8,-4,1,-2,-8
4024.8,-5,0,-1,-4
4024.8,-2,-1,-1,1
4024.8,4,4,1,4
4024.8,9,6,0,3
4024.8,11,10,5,7
4024.8,10,10,8,8
4024.8,9,9,8,8
4024.8,8,11,11,8
4024.8,7,8,11,8
4024.8,1,0,-1,-3
4024.8,-8,-11,-10,-8
4024.8,-7,-5,0,0
4024.81,1,3,7,7
4024.81,6,3,1,2
4024.81,3,-1,-9,-7
4024.81,0,0,-7,-4
4024.81,2,1,0,4
4024.81,6,2,6,14
4024.81,12,7,11,18
4024.81,13,4,5,12
4024.81,8,0,-2,3
4024.81,3,-4,-6,0
4024.81,3,0,-2,2
4024.81,5,4,4,7
4024.81,9,9,8,8
4024.81,7,6,4,2
4024.81,2,2,0,-2
4024.81,0,4,3,0
4024.81,1,6,7,4
4024.81,2,7,9,3
4024.82,1,10,13,4
4024.82,0,7,10,0
4024.82,-5,2,4,-5
4024.82,-9,-5,-8,-14
4024.82,-10,-4,-10,-14
4024.82,-4,0,-9,-11
4024.82,0,2,-7,-6
4024.82,5,9,2,1
4024.82,7,11,8,8
4024.82,11,15,16,14
4024.82,13,14,17,15
4024.82,10,8,11,9
4024.82,3,0,4,4
4024.82,0,-3,-2,0
4024.82,0,-2,-1,1
4024.82,2,0,0,1
4024.82,1,-1,-1,1
4024.83,0,-1,-2,0
4024.83,0,0,-1,1
4024.83,3,2,3,5
4024.83,6,4,4,6
4024.83,6,3,3,6
4024.83,2,-4,-3,3
4024.83,2,-4,-2,6
4024.83,7,2,5,12
4024.83,9,1,3,11
4024.83,7,0,1,6
4024.83,4,-1,0,3
4024.83,4,0,-3,0
4024.83,4,4,1,2
4024.83,7,7,2,1
4024.83,6,9,2,0
4024.83,6,10,4,-1
4024.83,4,11,6,-1
4024.83,4,12,6,-3
4024.84,0,10,6,-5
4024.84,-2,8,4,-5
4024.84,-3,5,4,-4
4024.84,-3,5,6,-1
4024.84,-2,5,7,0
4024.84,-3,1,3,0
4024.84,0,2,6,3
4024.84,0,2,5,2
4024.84,0,0,1,0
4024.84,-1,-1,0,1
4024.84,1,1,1,3
4024.84,5,4,2,5
4024.84,6,4,1,4
4024.84,6,2,0,3
4024.84,5,3,0,2
4024.84,3,0,-3,0
4024.84,0,-3,-6,-2
4024.85,0,-3,-5,2
4024.85,7,3,1,7
4024.85,12,12,9,9
4024.85,12,12,10,8
4024.85,8,7,10,11
4024.85,6,4,13,16
4024.85,5,-5,-3,3
4024.85,-1,-12,-14,-6
4024.85,-1,-6,-7,0
4024.85,6,3,3,8
4024.85,10,7,6,8
4024.85,7,6,7,5
4024.85,2,2,3,2
4024.85,0,2,3,1
4024.85,0,2,0,-1
4024.85,2,6,1,-2
4024.85,1,8,5,0
4024.85,2,9,7,-2
4024.86,0,6,4,-3
4024.86,0,7,4,-4
4024.86,-3,4,2,-4
4024.86,-3,0,-2,-5
4024.86,0,4,1,-1
4024.86,2,6,5,2
4024.86,4,6,5,3
4024.86,3,4,4,3
4024.86,3,2,2,4
4024.86,3,3,2,2
4024.86,3,4,4,5
4024.86,4,3,4,5
4024.86,4,3,2,3
4024.86,3,3,3,4
4024.86,3,1,2,4
4024.86,2,1,1,4
4024.86,3,0,-3,0
4024.87,1,-1,-6,-2
4024.87,3,1,-2,0
4024.87,7,6,5,6
4024.87,7,8,9,9
4024.87,5,3,6,9
4024.87,4,-1,0,6
4024.87,3,-3,-2,5
4024.87,3,-2,1,8
4024.87,5,0,4,10
4024.87,6,0,5,8
4024.87,4,1,5,6
4024.87,0,-1,0,1
4024.87,0,-3,-6,-5
4024.87,0,-4,-12,-9
4024.87,2,4,-4,-4
4024.87,7,14,6,1
4024.87,9,15,8,1
4024.88,7,14,8,0
4024.88,4,14,11,2
4024.88,3,14,16,6
4024.88,1,6,4,-3
4024.88,-1,2,0,-7
4024.88,-3,3,3,-3
4024.88,-5,1,7,2
4024.88,-4,-3,2,0
4024.88,-3,-4,-3,-1
4024.88,1,3,2,1
4024.88,6,8,6,3
4024.88,3,5,4,0
4024.88,-1,0,1,1
4024.88,1,1,2,5
4024.88,7,5,5,6
4024.88,6,3,0,1
4024.88,3,-1,-4,-1
4024.89,3,2,2,6
4024.89,8,6,5,8
4024.89,10,7,3,4
4024.89,8,5,0,1
4024.89,4,2,0,0
4024.89,0,-5,-5,0
4024.89,0,-4,-1,7
4024.89,6,0,5,14
4024.89,10,1,5,12
4024.89,7,0,1,8
4024.89,6,0,0,5
4024.89,4,0,0,4
4024.89,4,4,2,3
4024.89,3,4,2,1
4024.89,2,3,0,0
4024.89,2,4,0,-2
4024.89,2,8,4,-1
4024.89,2,10,7,0
4024.9,1,9,6,-2
4024.9,0,7,2,-6
4024.9,-1,7,2,-6
4024.9,-1,7,3,-4
4024.9,-1,6,4,-2
4024.9,-1,4,4,0
4024.9,0,3,6,3
4024.9,0,2,7,6
4024.9,1,0,2,1
4024.9,-1,-4,-3,-2
4024.9,-1,-2,-3,0
4024.9,3,1,-1,1
4024.9,7,4,-1,2
4024.9,8,7,1,4
4024.9,11,10,7,7
4024.9,11,10,6,7
4024.9,9,7,3,4
4024.91,7,5,1,2
4024.91,7,5,3,3
4024.91,4,1,-3,-1
4024.91,1,1,2,2
4024.91,2,2,5,7
4024.91,2,1,8,11
4024.91,3,3,21,23
4024.91,1,-10,2,9
4024.91,-6,-20,-15,-3
4024.91,-6,-14,-13,-2
4024.91,0,-6,-6,2
4024.91,5,2,4,9
4024.91,10,5,5,10
4024.91,12,11,13,13
4024.91,13,13,12,9
4024.91,8,7,0,-4
4024.91,-1,1,-8,-15
4024.91,-6,0,-11,-19
4024.92,-6,7,0,-9
4024.92,1,17,15,4
4024.92,6,16,14,3
4024.92,3,12,10,0
4024.92,1,12,10,0
4024.92,0,6,4,0
4024.92,0,2,0,-2
4024.92,-1,1,0,0
4024.92,-1,0,0,0
4024.92,-1,-1,-2,-1
4024.92,1,1,-1,0
4024.92,5,5,1,4
4024.92,7,6,6,8
4024.92,5,3,6,6
4024.92,3,1,4,7
4024.92,4,0,1,5
4024.92,7,3,3,4
4024.93,4,2,0,1
4024.93,1,0,0,0
4024.93,2,1,1,3
4024.93,5,3,1,4
4024.93,6,0,-2,1
4024.93,1,-5,-7,0
4024.93,2,-4,-5,4
4024.93,8,4,6,13
4024.93,12,7,9,14
4024.93,11,8,11,13
4024.93,7,2,5,6
4024.93,1,-2,-1,0
4024.93,0,-3,-7,-5
4024.93,0,-1,-9,-7
4024.93,1,0,-7,-5
4024.93,4,5,-1,-1
4024.93,7,11,4,2
4024.93,9,15,10,4
4024.94,10,18,15,6
4024.94,7,20,22,7
4024.94,1,11,13,0
4024.94,-7,0,1,-7
4024.94,-10,-2,0,-7
4024.94,-9,-4,-1,-4
4024.94,-7,-4,-1,-2
4024.94,-4,-3,0,0
4024.94,-1,0,1,2
4024.94,2,2,2,5
4024.94,6,6,6,6
4024.94,6,5,5,5
4024.94,5,3,1,3
4024.94,5,3,1,3
4024.94,6,3,0,0
4024.94,5,4,0,1
4024.94,4,2,-3,-1
4024.95,3,2,-1,1
4024.95,6,6,5,6
4024.95,8,6,4,5
4024.95,6,4,1,2
4024.95,2,-1,-1,3
4024.95,3,-1,0,8
4024.95,9,2,5,13
4024.95,12,5,7,12
4024.95,8,3,8,13
4024.95,6,-1,0,4
4024.95,1,-4,-4,0
4024.95,2,1,0,0
4024.95,1,0,-1,-1
4024.95,-1,0,-1,-3
4024.95,-2,0,-1,-2
4024.95,0,5,1,-1
4024.95,4,10,4,0
4024.95,7,13,5,-2
4024.96,4,13,9,0
4024.96,3,15,14,3
4024.96,1,14,16,4
4024.96,0,9,12,1
4024.96,-4,0,1,-7
4024.96,-11,-8,-7,-9
4024.96,-9,-9,-10,-8
4024.96,-3,-1,-4,-3
4024.96,3,4,1,2
4024.96,7,7,5,6
4024.96,10,10,9,9
4024.96,9,8,9,8
4024.96,8,8,10,11
4024.96,6,4,6,6
4024.96,1,-3,-3,0
4024.96,-1,-2,-2,0
4024.96,1,0,0,2
4024.97,3,1,0,1
4024.97,3,1,0,1
4024.97,4,4,4,4
4024.97,5,5,7,8
4024.97,3,-2,0,6
4024.97,1,-4,-3,5
4024.97,4,-4,-2,5
4024.97,5,-2,-3,5
4024.97,7,0,-3,4
4024.97,8,2,-2,3
4024.97,9,4,-1,2
4024.97,9,9,6,6
4024.97,10,10,6,5
4024.97,7,6,1,0
4024.97,5,8,5,1
4024.97,4,11,12,4
4024.97,3,11,14,5
4024.98,1,8,12,1
4024.98,-3,0,0,-8
4024.98,-7,0,-3,-10
4024.98,-7,1,-1,-8
4024.98,-5,2,0,-6
4024.98,-5,2,3,0
4024.98,-1,3,8,6
4024.98,3,4,7,6
4024.98,2,1,1,0
4024.98,-2,-4,-6,-5
4024.98,-3,-5,-8,-4
4024.98,1,2,0,3
4024.98,7,9,8,9
4024.98,11,6,2,4
4024.98,9,7,4,6
4024.98,9,10,12,13
4024.98,11,10,11,11
4024.98,9,5,2,4
4024.99,5,0,-4,-2
4024.99,2,0,-3,-2
4024.99,2,1,-1,0
4024.99,3,1,0,1
4024.99,1,-1,1,6
4024.99,4,-1,1,8
4024.99,5,0,3,9
4024.99,4,-1,4,10
4024.99,4,-3,0,5
4024.99,3,-1,0,3
4024.99,5,2,0,2
4024.99,4,4,0,0
4024.99,3,4,1,0
4024.99,4,4,1,0
4024.99,5,9,5,0
4024.99,5,10,5,-1
4024.99,1,7,3,-2
4025,0,6,6,0
4025,0,6,6,0
4025,0,6,5,-1
4025,0,4,0,-7
4025,-1,6,4,-2
4025,-2,3,4,0
4025,-2,-4,-7,-7
4025,0,1,-2,0
4025,6,9,9,6
4025,8,10,12,10
4025,6,7,11,8
4025,2,2,4,4
4025,0,0,0,0
4025,0,0,0,1
4025,1,0,1,1
4025,0,0,0,2
4025,2,0,0,2
4025,3,1,0,2
4025.01,4,1,0,3
4025.01,5,0,-2,0
4025.01,4,1,0,4
4025.01,4,0,1,7
4025.01,6,0,2,11
4025.01,11,3,5,11
4025.01,9,2,3,8
4025.01,6,0,0,6
4025.01,6,1,0,5
4025.01,5,0,0,2
4025.01,4,0,-4,-1
4025.01,3,-1,-7,-4
4025.01,3,3,-1,0
4025.01,7,11,9,6
4025.01,10,16,15,8
4025.01,7,12,11,3
4025.01,2,9,9,0
4025.02,-3,5,7,-2
4025.02,-6,0,1,-7
4025.02,-8,0,-3,-9
4025.02,-6,0,-2,-8
4025.02,-3,2,-2,-7
4025.02,-2,0,-3,-5
4025.02,1,2,-3,-2
4025.02,6,9,3,4
4025.02,10,12,9,8
4025.02,10,11,11,10
4025.02,9,11,12,11
4025.02,6,7,9,8
4025.02,1,1,3,2
4025.02,0,0,4,3
4025.02,-1,-4,0,0
4025.02,-3,-6,-4,-2
4025.02,-2,-3,-2,0
4025.02,1,0,-2,0
4025.03,2,0,-1,1
4025.03,5,3,1,3
4025.03,7,5,4,6
4025.03,7,3,3,7
4025.03,7,1,1,7
4025.03,6,0,0,7
4025.03,7,1,0,6
4025.03,7,0,0,6
4025.03,7,2,1,6
4025.03,7,1,1,5
4025.03,5,4,4,6
4025.03,5,5,7,6
4025.03,4,3,4,2
4025.03,0,1,-1,-3
4025.03,-2,1,-2,-6
4025.03,-3,4,4,-2
4025.03,0,7,6,-1
4025.04,0,9,7,0
4025.04,2,10,7,-1
4025.04,1,9,4,-4
4025.04,0,8,6,-1
4025.04,1,6,4,-2
4025.04,0,1,-1,-3
4025.04,0,1,0,-1
4025.04,0,0,-2,-2
4025.04,2,1,-1,0
4025.04,3,3,0,2
4025.04,7,8,5,6
4025.04,9,9,7,7
4025.04,8,5,0,2
4025.04,6,4,0,1
4025.04,4,3,2,3
4025.04,4,4,3,5
4025.04,4,5,7,8
4025.05,6,5,9,9
4025.05,4,7,16,13
4025.05,1,4,18,15
4025.05,-4,-10,-3,-1
4025.05,-11,-20,-18,-11
4025.05,-9,-16,-17,-8
4025.05,-4,-10,-12,-2
4025.05,3,-1,-2,6
4025.05,11,6,5,13
4025.05,18,12,9,14
4025.05,17,13,8,10
4025.05,13,10,6,5
4025.05,6,6,4,3
4025.05,5,7,7,7
4025.05,8,10,8,4
4025.05,5,7,3,-3
4025.05,0,4,-3,-10
4025.05,-5,0,-7,-15
4025.06,-5,2,-6,-13
4025.06,-1,8,0,-8
4025.06,2,13,6,-2
4025.06,3,11,8,0
4025.06,1,10,14,8
4025.06,2,10,22,17
4025.06,2,1,9,7
4025.06,-2,-4,-2,0
4025.06,-2,-2,-2,-3
4025.06,-3,-1,0,-1
4025.06,-2,-2,0,1
4025.06,0,0,1,5
4025.06,4,3,4,7
4025.06,6,3,3,5
4025.06,4,0,0,2
4025.06,4,1,-2,0
4025.06,5,4,0,2
4025.07,7,7,5,5
4025.07,7,8,5,4
4025.07,4,4,3,4
4025.07,2,0,2,5
4025.07,2,-3,0,7
4025.07,4,-3,-1,6
4025.07,4,-2,-2,4
4025.07,4,-2,-2,4
4025.07,6,2,1,7
4025.07,8,4,3,6
4025.07,8,4,2,3
4025.07,7,4,0,0
4025.07,3,3,0,0
4025.07,2,3,0,1
4025.07,4,7,3,1
4025.07,5,10,6,0
4025.07,4,10,6,0
4025.07,1,8,6,-1
4025.08,0,8,7,-2
4025.08,0,7,7,-1
4025.08,-3,4,6,0
4025.08,-2,5,6,-1
4025.08,-4,0,3,-1
4025.08,-3,-2,0,-2
4025.08,-3,0,3,0
4025.08,-1,0,0,-1
4025.08,0,0,-3,-1
4025.08,3,3,0,0
4025.08,4,3,-2,0
4025.08,6,4,0,4
4025.08,9,8,6,9
4025.08,11,9,7,9
4025.08,11,11,11,11
4025.08,8,8,10,10
4025.08,3,0,0,0
4025.09,0,-3,-5,-2
4025.09,0,-2,-6,-4
4025.09,2,0,-5,-2
4025.09,3,2,0,3
4025.09,4,0,-1,5
4025.09,6,0,1,8
4025.09,8,6,10,14
4025.09,8,1,4,10
4025.09,5,-1,-2,1
4025.09,2,-4,-8,-2
4025.09,3,0,-6,-2
4025.09,5,4,-1,0
4025.09,7,9,4,3
4025.09,7,8,6,4
4025.09,6,9,8,4
4025.09,4,12,14,6
4025.09,5,15,18,6
4025.09,0,9,11,-2
4025.1,-7,3,5,-4
4025.1,-9,2,6,-2
4025.1,-9,-2,1,-5
4025.1,-9,-4,0,-3
4025.1,-7,-4,0,-1
4025.1,-2,-1,-3,-1
4025.1,1,-1,-5,-2
4025.1,4,1,-6,-3
4025.1,6,6,-1,0
4025.1,9,10,5,7
4025.1,12,13,12,13
4025.1,12,9,6,6
4025.1,8,3,-3,0
4025.1,4,2,-3,0
4025.1,5,5,0,3
4025.1,7,7,7,9
4025.1,9,7,10,10
4025.11,7,4,3,3
4025.11,3,1,0,0
4025.11,0,0,0,2
4025.11,-2,-8,-6,-1
4025.11,-2,-7,-4,3
4025.11,3,0,4,10
4025.11,7,1,5,11
4025.11,5,-3,0,6
4025.11,5,0,0,5
4025.11,6,2,0,4
4025.11,7,7,4,4
4025.11,6,8,5,1
4025.11,3,6,4,0
4025.11,3,7,4,0
4025.11,2,8,5,-2
4025.11,0,5,2,-3
4025.11,-1,7,3,-4
4025.12,-1,8,6,-3
4025.12,-1,7,5,-3
4025.12,-2,6,3,-5
4025.12,-5,1,1,-5
4025.12,-4,1,2,-2
4025.12,-4,0,0,0
4025.12,0,2,6,5
4025.12,5,6,8,8
4025.12,5,5,6,6
4025.12,6,3,1,3
4025.12,5,4,3,5
4025.12,6,4,3,5
4025.12,6,5,2,4
4025.12,6,6,5,6
4025.12,5,2,0,1
4025.12,2,0,0,2
4025.12,3,1,2,3
4025.12,3,-1,-3,0
4025.13,2,0,-2,1
4025.13,5,3,0,1
4025.13,4,2,0,2
4025.13,2,-1,-1,4
4025.13,4,-2,0,8
4025.13,7,0,2,9
4025.13,8,0,-1,7
4025.13,7,0,0,7
4025.13,8,2,1,6
4025.13,7,3,1,5
4025.13,6,3,1,3
4025.13,5,4,3,2
4025.13,4,4,2,0
4025.13,2,5,3,0
4025.13,2,8,5,0
4025.13,2,9,6,-1
4025.13,1,11,8,0
4025.14,1,9,7,-3
4025.14,-1,6,3,-6
4025.14,-4,3,1,-5
4025.14,-3,3,1,-4
4025.14,-2,3,2,-2
4025.14,-2,0,0,0
4025.14,0,0,0,0
4025.14,1,1,0,0
4025.14,3,4,0,1
4025.14,6,6,2,4
4025.14,7,6,2,3
4025.14,7,7,5,5
4025.14,7,9,14,13
4025.14,6,9,20,18
4025.14,3,1,11,10
4025.14,0,-4,0,2
4025.14,-4,-5,-2,-1
4025.15,-4,-7,-4,-2
4025.15,-4,-7,-9,-5
4025.15,-1,-4,-7,-2
4025.15,3,1,-2,1
4025.15,7,3,0,5
4025.15,9,2,0,6
4025.15,10,5,3,9
4025.15,10,4,3,10
4025.15,12,6,3,10
4025.15,11,5,3,7
4025.15,7,4,6,8
4025.15,5,5,9,9
4025.15,3,1,5,5
4025.15,1,0,0,-1
4025.15,0,1,-2,-6
4025.15,-1,0,-11,-15
4025.15,-2,3,-12,-16
4025.15,1,12,-1,-9
4025.16,5,16,8,0
4025.16,10,21,17,7
4025.16,7,15,14,4
4025.16,2,9,11,2
4025.16,-1,3,9,3
4025.16,-3,0,5,3
4025.16,-4,-5,-1,-3
4025.16,-7,-7,-5,-4
4025.16,-4,-4,-2,0
4025.16,0,0,1,3
4025.16,3,3,5,6
4025.16,5,4,6,8
4025.16,6,5,6,7
4025.16,6,4,5,6
4025.16,5,3,2,3
4025.16,4,4,2,3
4025.16,4,3,0,1
4025.17,4,3,0,0
4025.17,3,2,-1,0
4025.17,1,1,0,1
4025.17,2,1,1,3
4025.17,2,-3,-3,1
4025.17,3,-1,-1,6
4025.17,6,3,6,12
4025.17,9,2,5,11
4025.17,8,0,2,8
4025.17,6,-2,-4,2
4025.17,5,-1,-6,0
4025.17,6,4,1,3
4025.17,5,7,5,4
4025.17,5,6,5,3
4025.17,6,9,7,2
4025.17,4,9,5,-1
4025.17,2,9,3,-4
4025.17,0,7,3,-5
4025.18,-1,8,6,-2
4025.18,-1,9,8,-1
4025.18,-1,5,5,-2
4025.18,-3,3,3,-4
4025.18,-5,-2,-2,-5
4025.18,-5,-4,-3,-2
4025.18,-1,1,2,4
4025.18,4,6,6,7
4025.18,6,5,5,5
4025.18,5,4,3,3
4025.18,4,3,2,2
4025.18,4,4,3,4
4025.18,5,4,3,3
4025.18,4,2,0,1
4025.18,1,0,0,0
4025.18,0,-1,0,0
4025.18,0,0,3,5
4025.19,4,3,5,8
4025.19,7,5,4,7
4025.19,6,4,4,5
4025.19,4,-1,0,4
4025.19,3,-4,-5,4
4025.19,6,-2,-4,5
4025.19,8,1,-1,6
4025.19,7,0,0,6
4025.19,9,4,2,8
4025.19,10,6,6,8
4025.19,8,6,4,4
4025.19,5,5,3,3
4025.19,4,5,4,1
4025.19,3,5,4,0
4025.19,0,4,3,-2
4025.19,-1,4,1,-6
4025.19,-4,2,-1,-8
4025.2,-4,5,3,-4
4025.2,0,9,7,-1
4025.2,0,8,7,0
4025.2,-2,3,3,-3
4025.2,-3,2,3,0
4025.2,-2,1,3,2
4025.2,0,2,5,4
4025.2,3,3,4,4
4025.2,3,2,2,3
4025.2,3,1,0,1
4025.2,3,1,-2,0
4025.2,4,1,-1,0
4025.2,4,1,-5,-2
4025.2,4,3,-4,0
4025.2,8,7,2,4
4025.2,11,11,8,9
4025.2,11,11,11,11
4025.2,7,7,9,9
4025.21,6,7,10,8
4025.21,2,1,5,4
4025.21,-2,-4,-3,-2
4025.21,-5,-11,-10,-4
4025.21,-4,-10,-9,0
4025.21,0,-3,-1,6
4025.21,5,2,8,14
4025.21,9,0,2,10
4025.21,7,0,0,6
4025.21,6,1,0,3
4025.21,8,4,0,1
4025.21,8,5,-2,-1
4025.21,7,7,-2,-3
4025.21,7,12,5,1
4025.21,8,17,14,6
4025.21,6,14,13,4
4025.21,2,9,9,0
4025.22,-2,5,6,-4
4025.22,-5,2,4,-4
4025.22,-6,0,0,-7
4025.22,-7,0,0,-6
4025.22,-5,1,3,-2
4025.22,-3,0,1,0
4025.22,-1,0,0,0
4025.22,0,2,4,3
4025.22,3,3,4,4
4025.22,4,5,5,5
4025.22,5,4,2,3
4025.22,5,2,0,0
4025.22,4,3,0,1
4025.22,4,3,0,2
4025.22,6,5,3,6
4025.22,7,4,2,6
4025.22,8,4,1,5
4025.22,7,6,5,6
4025.23,7,7,9,8
4025.23,4,2,5,6
4025.23,0,-3,-2,1
4025.23,-1,-8,-7,0
4025.23,1,-5,-5,2
4025.23,4,-1,-2,4
4025.23,5,-1,-1,6
4025.23,8,2,3,9
4025.23,10,5,3,6
4025.23,8,3,0,1
4025.23,4,2,0,1
4025.23,5,5,3,2
4025.23,6,8,6,4
4025.23,6,9,7,2
4025.23,3,8,5,-2
4025.23,0,5,2,-5
4025.23,-2,6,3,-4
4025.24,0,8,6,-2
4025.24,0,8,6,-2
4025.24,-1,4,0,-6
4025.24,-3,2,-2,-7
4025.24,-3,0,-1,-4
4025.24,0,4,4,3
4025.24,5,7,7,6
4025.24,7,8,8,6
4025.24,4,9,15,12
4025.24,4,1,4,3
4025.24,0,-4,-4,-2
4025.24,-1,-3,-6,-2
4025.24,0,-1,-4,-1
4025.24,2,0,0,2
4025.24,4,5,7,10
4025.24,8,7,10,12
4025.24,9,6,5,6
4025.24,5,3,2,2
4025.25,1,0,0,1
4025.25,0,0,0,2
4025.25,0,-1,0,3
4025.25,1,-2,0,5
4025.25,5,1,2,8
4025.25,5,-1,0,3
4025.25,3,-6,-7,0
4025.25,4,-1,-2,4
4025.25,7,3,1,7
4025.25,9,4,1,5
4025.25,10,7,2,4
4025.25,9,9,2,2
4025.25,8,9,3,1
4025.25,6,11,7,2
4025.25,5,11,5,-1
4025.25,2,10,4,-5
4025.25,-1,8,4,-5
4025.26,-2,7,4,-4
4025.26,-3,5,2,-4
4025.26,-3,2,0,-5
4025.26,-4,2,0,-4
4025.26,-3,0,0,-1
4025.26,0,2,2,0
4025.26,2,4,4,4
4025.26,3,4,4,5
4025.26,4,2,3,5
4025.26,4,2,3,5
4025.26,5,4,6,8
4025.26,5,5,9,9
4025.26,6,5,7,7
4025.26,2,0,2,3
4025.26,0,-2,-3,0
4025.26,0,-2,-3,-1
4025.26,0,-2,-4,-1
4025.27,1,0,-2,0
4025.27,5,4,2,4
4025.27,7,5,1,3
4025.27,6,2,0,4
4025.27,6,0,-1,5
4025.27,6,0,-1,3
4025.27,6,2,2,8
4025.27,7,3,5,10
4025.27,8,5,8,11
4025.27,6,4,9,9
4025.27,4,0,2,3
4025.27,2,0,0,1
4025.27,3,2,1,1
4025.27,2,3,0,0
4025.27,1,4,1,-1
4025.27,1,5,3,-1
4025.27,3,10,6,0
4025.27,1,8,5,-2
4025.28,-1,7,6,-3
4025.28,-3,3,3,-5
4025.28,-5,1,2,-5
4025.28,-4,3,2,-3
4025.28,-2,3,2,0
4025.28,0,3,3,1
4025.28,1,1,3,3
4025.28,2,3,5,6
4025.28,5,6,7,8
4025.28,6,2,1,2
4025.28,4,1,-2,0
4025.28,3,0,-3,0
4025.28,4,2,-2,0
4025.28,7,7,4,5
4025.28,9,9,7,7
4025.28,9,8,6,6
4025.28,6,4,3,3
4025.29,4,2,2,2
4025.29,3,1,0,1
4025.29,1,-3,-3,0
4025.29,-2,-7,-5,1
4025.29,0,-7,-6,4
4025.29,6,-1,-2,6
4025.29,10,3,1,10
4025.29,12,5,3,9
4025.29,12,5,2,6
4025.29,9,4,1,4
4025.29,7,6,2,3
4025.29,6,7,5,3
4025.29,4,5,4,2
4025.29,2,4,3,1
4025.29,1,4,4,0
4025.29,0,6,5,0
4025.29,0,7,6,-3
4025.29,-1,5,2,-5
4025.3,-2,5,3,-6
4025.3,-4,6,4,-3
4025.3,-2,5,6,0
4025.3,-2,4,4,0
4025.3,-3,0,1,0
4025.3,-1,0,0,1
4025.3,1,0,0,0
4025.3,1,0,-1,0
4025.3,2,2,0,1
4025.3,5,6,4,5
4025.3,7,7,5,4
4025.3,7,6,3,4
4025.3,6,6,6,6
4025.3,6,4,5,6
4025.3,5,4,5,7
4025.3,6,5,7,8
4025.3,4,1,1,1
4025.31,0,-2,-3,-2
4025.31,-1,-3,-4,-2
4025.31,-1,-3,-3,0
4025.31,1,-3,-2,5
4025.31,5,0,0,7
4025.31,9,2,1,8
4025.31,7,0,1,8
4025.31,8,3,3,8
4025.31,8,4,4,9
4025.31,10,7,6,8
4025.31,9,7,4,3
4025.31,4,3,1,-1
4025.31,0,2,0,-2
4025.31,0,4,3,-1
4025.31,0,7,6,0
4025.31,0,7,5,-3
4025.31,-2,5,1,-7
4025.31,-4,1,-1,-8
4025.32,-3,4,-1,-6
4025.32,0,6,0,-3
4025.32,3,11,4,0
4025.32,4,9,6,1
4025.32,3,8,10,8
4025.32,4,8,14,12
4025.32,5,4,9,7
4025.32,0,-1,1,1
4025.32,-1,-4,-3,-2
4025.32,-1,-3,-5,-2
4025.32,0,-2,-4,-1
4025.32,3,1,-1,1
4025.32,4,5,2,4
4025.32,8,7,6,7
4025.32,8,8,7,8
4025.32,7,6,5,5
4025.32,4,3,5,5
4025.33,1,0,1,2
4025.33,1,-1,-4,0
4025.33,1,-4,-8,-2
4025.33,0,-6,-10,-1
4025.33,4,-2,-5,3
4025.33,10,5,5,11
4025.33,13,8,10,16
4025.33,14,8,10,13
4025.33,9,5,9,11
4025.33,6,4,8,8
4025.33,2,1,3,0
4025.33,-1,-1,0,-1
4025.33,-3,0,0,-3
4025.33,-2,1,0,-4
4025.33,-3,2,-1,-7
4025.33,-2,4,0,-5
4025.33,0,8,6,0
4025.34,1,8,6,0
4025.34,1,7,4,-1
4025.34,1,8,5,-2
4025.34,0,8,5,0
4025.34,0,6,5,1
4025.34,1,2,-1,-2
4025.34,2,1,-4,-4
4025.34,2,5,0,1
4025.34,5,5,4,5
4025.34,6,4,5,8
4025.34,7,4,4,7
4025.34,7,5,5,6
4025.34,5,2,3,4
4025.34,3,2,3,3
4025.34,3,4,6,5
4025.34,2,1,3,3
4025.34,1,0,0,1
4025.34,1,-1,-2,0
4025.35,0,-2,-4,-1
4025.35,2,0,-1,2
4025.35,4,0,0,5
4025.35,7,0,-2,4
4025.35,8,1,1,7
4025.35,7,2,3,10
4025.35,8,1,3,9
4025.35,9,5,6,10
4025.35,9,5,4,6
4025.35,6,3,2,3
4025.35,2,1,0,0
4025.35,0,2,0,-1
4025.35,0,3,1,-1
4025.35,1,6,1,-1
4025.35,2,7,3,-3
4025.35,0,7,4,-5
4025.35,-4,4,4,-5
4025.36,-5,4,5,-2
4025.36,-3,6,8,0
4025.36,0,7,7,0
4025.36,2,7,4,-2
4025.36,0,4,3,0
4025.36,2,5,5,3
4025.36,4,5,3,3
4025.36,4,4,3,3
4025.36,3,1,1,3
4025.36,3,1,1,3
4025.36,5,4,3,4
4025.36,7,5,4,4
4025.36,5,3,0,1
4025.36,2,1,0,0
4025.36,2,0,-3,-1
4025.36,2,1,-1,0
4025.36,3,4,4,5
4025.36,6,6,9,10
4025.37,6,2,3,6
4025.37,3,0,0,4
4025.37,1,-4,-1,3
4025.37,1,-4,-2,5
4025.37,3,-4,-2,5
4025.37,5,-1,-1,6
4025.37,8,1,0,6
4025.37,9,3,1,5
4025.37,9,4,1,4
4025.37,7,5,2,3
4025.37,6,6,3,3
4025.37,4,5,5,2
4025.37,4,6,5,1
4025.37,3,8,6,0
4025.37,0,6,8,0
4025.37,0,8,9,0
4025.37,-2,6,6,-4
4025.38,-4,4,3,-6
4025.38,-6,1,1,-6
4025.38,-6,1,1,-4
4025.38,-3,2,2,-1
4025.38,-1,2,3,1
4025.38,2,3,4,3
4025.38,3,2,2,1
4025.38,2,1,0,0
4025.38,4,3,3,4
4025.38,7,7,7,7
4025.38,8,7,4,4
4025.38,5,1,-2,0
4025.38,4,3,-1,0
4025.38,6,7,2,3
4025.38,6,8,7,7
4025.38,7,2,0,1
4025.38,5,0,-7,-4
4025.39,4,3,-2,0
4025.39,5,7,8,9
4025.39,6,6,12,13
4025.39,4,-2,3,9
4025.39,2,-5,0,6
4025.39,2,-4,-1,4
4025.39,1,-6,-5,1
4025.39,0,-6,-6,0
4025.39,3,0,-2,3
4025.39,7,4,3,6
4025.39,9,9,7,6
4025.39,7,8,6,4
4025.39,4,6,6,3
4025.39,4,8,7,2
4025.39,4,9,9,2
4025.39,2,9,6,-2
4025.39,-3,2,-1,-8
4025.4,-6,0,-5,-11
4025.4,-4,4,0,-7
4025.4,-1,7,1,-5
4025.4,1,8,2,-3
4025.4,1,6,2,-1
4025.4,3,6,4,2
4025.4,5,8,8,6
4025.4,5,8,10,8
4025.4,4,4,6,4
4025.4,0,0,4,4
4025.4,0,-1,1,1
4025.4,-1,-2,0,2
4025.4,1,0,3,5
4025.4,4,3,4,6
4025.4,5,4,3,5
4025.4,4,2,0,2
4025.4,3,1,0,3
4025.4,4,2,1,3
4025.41,4,3,2,4
4025.41,4,3,2,4
4025.41,4,0,0,3
4025.41,1,-5,-4,3
4025.41,4,-4,-4,3
4025.41,6,0,-3,4
4025.41,7,0,-2,6
4025.41,11,7,6,11
4025.41,12,8,7,9
4025.41,10,7,4,3
4025.41,4,4,3,1
4025.41,3,4,1,-1
4025.41,0,2,0,-2
4025.41,0,5,2,-1
4025.41,1,5,3,-1
4025.41,0,5,1,-1
4025.41,1,7,4,-1
4025.42,0,8,7,0
4025.42,0,7,5,-2
4025.42,-1,6,5,-1
4025.42,-1,5,5,0
4025.42,-1,2,3,0
4025.42,-1,0,3,1
4025.42,0,1,2,1
4025.42,0,0,1,1
4025.42,1,2,5,5
4025.42,2,3,6,7
4025.42,3,2,4,4
4025.42,2,0,0,0
4025.42,0,0,-4,-1
4025.42,3,1,-5,-2
4025.42,6,5,-4,-2
4025.42,8,8,0,0
4025.42,10,9,3,3
4025.42,10,9,3,4
4025.43,9,7,4,6
4025.43,9,7,4,7
4025.43,7,3,4,9
4025.43,5,0,4,10
4025.43,5,-2,1,8
4025.43,4,-2,0,4
4025.43,1,-5,-2,3
4025.43,2,-1,0,3
4025.43,2,-1,0,3
4025.43,2,1,1,2
4025.43,3,3,2,2
4025.43,4,4,2,0
4025.43,1,3,3,0
4025.43,1,4,3,0
4025.43,1,7,8,2
4025.43,3,12,12,3
4025.43,0,9,10,-1
4025.44,-3,4,3,-5
4025.44,-5,1,0,-7
4025.44,-4,1,-5,-11
4025.44,-2,3,-3,-8
4025.44,0,4,0,0
4025.44,6,8,2,2
4025.44,8,9,4,4
4025.44,8,10,8,7
4025.44,8,8,8,8
4025.44,6,4,6,7
4025.44,5,4,7,7
4025.44,4,3,8,8
4025.44,2,0,2,4
4025.44,-1,-4,-3,0
4025.44,-2,-4,-4,-1
4025.44,0,-1,-1,0
4025.44,2,1,1,2
4025.44,4,3,2,4
4025.45,5,3,3,3
4025.45,4,2,0,3
4025.45,2,-2,-2,4
4025.45,3,-3,-1,7
4025.45,5,-1,0,7
4025.45,8,1,2,9
4025.45,9,3,4,9
4025.45,9,5,5,8
4025.45,7,3,4,6
4025.45,5,3,3,3
4025.45,2,2,1,0
4025.45,0,0,-2,-3
4025.45,1,3,-1,-2
4025.45,2,8,4,-1
4025.45,2,9,6,0
4025.45,1,8,4,-3
4025.45,0,8,3,-3
4025.46,0,9,3,-5
4025.46,-1,6,0,-6
4025.46,-1,5,0,-5
4025.46,0,5,0,-4
4025.46,2,5,0,0
4025.46,4,6,3,2
4025.46,4,7,7,5
4025.46,5,8,12,9
4025.46,5,5,9,9
4025.46,5,3,4,6
4025.46,4,3,5,4
4025.46,0,0,4,4
4025.46,0,-2,2,3
4025.46,-1,-3,0,2
4025.46,0,-2,0,1
4025.46,0,-2,-3,0
4025.46,0,-3,-5,-2
4025.46,1,-1,-4,-1
4025.47,4,3,0,3
4025.47,9,8,6,8
4025.47,8,4,4,10
4025.47,9,3,4,9
4025.47,8,4,6,10
4025.47,7,2,8,12
4025.47,6,0,4,7
4025.47,3,-2,-2,1
4025.47,0,-4,-5,-2
4025.47,0,-1,-3,-2
4025.47,1,0,-3,-1
4025.47,2,4,0,1
4025.47,8,11,7,3
4025.47,8,12,7,1
4025.47,4,10,5,-2
4025.47,1,11,7,-1
4025.47,1,11,9,-1
4025.48,0,8,8,-2
4025.48,-3,4,4,-4
4025.48,-5,1,1,-5
4025.48,-6,-1,0,-3
4025.48,-4,-1,0,0
4025.48,0,1,1,1
4025.48,2,1,0,3
4025.48,4,3,1,4
4025.48,6,3,3,6
4025.48,7,6,4,6
4025.48,8,6,4,5
4025.48,6,6,4,4
4025.48,3,3,2,3
4025.48,3,1,1,2
4025.48,2,2,2,3
4025.48,2,2,5,6
4025.48,2,0,2,4
4025.49,2,0,0,0
4025.49,0,-1,-2,0
4025.49,0,-3,-5,-1
4025.49,-1,-8,-9,0
4025.49,3,-6,-9,2
4025.49,10,1,-4,6
4025.49,16,6,-1,9
4025.49,20,13,6,12
4025.49,19,17,14,16
4025.49,17,15,15,13
4025.49,10,10,10,6
4025.49,1,2,3,0
4025.49,-3,-1,0,-3
4025.49,-5,-1,0,-5
4025.49,-5,0,0,-7
4025.49,-5,2,1,-6
4025.49,-5,3,1,-7
4025.49,-3,5,3,-5
4025.5,-4,5,5,-3
4025.5,-1,6,6,-1
4025.5,0,7,8,1
4025.5,0,1,3,0
4025.5,0,1,1,1
4025.5,1,1,1,1
4025.5,3,3,4,5
4025.5,6,4,4,6
4025.5,6,4,3,5
4025.5,5,4,3,4
4025.5,4,2,2,2
4025.5,2,1,2,3
4025.5,5,4,4,5
4025.5,5,4,3,3
4025.5,5,3,0,0
4025.5,3,1,0,1
4025.5,3,1,-1,2
4025.51,5,3,0,2
4025.51,5,4,3,4
4025.51,4,1,0,4
4025.51,3,-2,0,5
4025.51,3,-2,0,7
4025.51,6,1,5,10
4025.51,5,0,4,8
4025.51,4,0,0,5
4025.51,3,-1,-2,0
4025.51,3,0,-1,0
4025.51,3,3,1,1
4025.51,3,5,4,2
4025.51,3,4,3,1
4025.51,3,7,5,1
4025.51,4,9,5,0
4025.51,3,8,2,-4
4025.51,1,7,0,-7
4025.51,1,12,5,-2
4025.52,4,13,8,0
4025.52,1,8,6,-1
4025.52,0,7,6,0
4025.52,-1,1,1,-1
4025.52,-1,0,1,0
4025.52,0,1,0,0
4025.52,0,1,0,1
4025.52,1,2,2,3
4025.52,4,3,3,5
4025.52,5,4,4,4
4025.52,3,1,2,3
4025.52,4,2,1,3
4025.52,3,1,1,3
4025.52,4,2,3,6
4025.52,5,3,3,4
4025.52,4,1,0,2
4025.52,3,1,-1,0
4025.53,2,1,0,0
4025.53,4,3,1,3
4025.53,3,0,0,5
4025.53,4,0,1,7
4025.53,5,0,1,7
4025.53,4,-1,-1,5
4025.53,5,-1,-1,4
4025.53,7,0,-3,2
4025.53,7,2,-2,1
4025.53,8,6,1,1
4025.53,7,9,7,4
4025.53,8,13,12,8
4025.53,7,14,18,11
4025.53,5,11,14,6
4025.53,-1,5,8,0
4025.53,-6,0,1,-7
4025.53,-11,-7,-8,-12
4025.53,-11,-5,-4,-8
4025.54,-7,-1,-1,-4
4025.54,-2,0,0,-3
4025.54,0,2,-3,-5
4025.54,1,5,0,0
4025.54,6,8,4,3
4025.54,8,7,0,1
4025.54,10,10,4,5
4025.54,11,15,17,16
4025.54,12,11,12,10
4025.54,6,4,5,5
4025.54,3,1,3,3
4025.54,1,0,3,3
4025.54,0,1,5,4
4025.54,0,-3,-2,-2
4025.54,-2,-3,-4,-2
4025.54,0,-1,-1,0
4025.54,1,0,-3,0
4025.55,2,1,-1,1
4025.55,4,1,0,3
4025.55,4,0,0,6
4025.55,8,1,1,9
4025.55,10,3,1,8
4025.55,8,2,2,8
4025.55,8,3,3,10
4025.55,8,3,3,7
4025.55,6,1,1,3
4025.55,5,2,1,2
4025.55,3,3,1,1
4025.55,3,3,3,1
4025.55,2,6,5,0
4025.55,3,7,4,-1
4025.55,1,7,2,-5
4025.55,-1,6,2,-5
4025.55,-1,7,3,-4
4025.56,-1,8,5,-3
4025.56,0,9,6,-2
4025.56,0,7,4,-3
4025.56,-2,1,0,-4
4025.56,-3,-1,-2,-2
4025.56,0,3,3,3
4025.56,4,5,7,7
4025.56,4,4,5,5
4025.56,4,3,4,5
4025.56,4,4,3,3
4025.56,3,2,2,2
4025.56,1,0,0,3
4025.56,4,2,1,2
4025.56,4,2,0,1
4025.56,3,1,0,2
4025.56,4,1,1,4
4025.56,6,4,3,5
4025.56,7,6,4,5
4025.57,5,5,2,3
4025.57,4,1,1,2
4025.57,1,-4,-4,2
4025.57,2,-4,-5,2
4025.57,5,-1,-1,6
4025.57,5,-2,0,8
4025.57,9,1,2,9
4025.57,9,5,6,10
4025.57,10,5,6,6
4025.57,4,4,3,2
4025.57,3,3,2,0
4025.57,1,3,0,0
4025.57,2,6,0,-3
4025.57,1,6,1,-5
4025.57,1,9,3,-4
4025.57,0,9,6,-1
4025.57,1,11,8,0
4025.58,0,8,7,-1
4025.58,-2,4,5,0
4025.58,-3,4,9,2
4025.58,-3,0,5,0
4025.58,-3,-1,1,-1
4025.58,-3,-1,0,-2
4025.58,-3,-2,-1,-1
4025.58,-1,-1,0,0
4025.58,1,2,1,3
4025.58,7,6,2,4
4025.58,8,4,0,1
4025.58,7,5,2,4
4025.58,8,8,7,8
4025.58,8,7,7,8
4025.58,6,4,5,7
4025.58,6,3,4,5
4025.58,4,1,1,3
4025.58,2,0,-2,-1
4025.59,1,0,-5,-2
4025.59,0,-2,-5,1
4025.59,4,0,0,7
4025.59,7,0,0,7
4025.59,9,0,0,8
4025.59,8,0,0,7
4025.59,10,3,2,8
4025.59,9,5,4,7
4025.59,9,5,2,2
4025.59,4,1,-3,-2
4025.59,2,3,-3,-4
4025.59,3,5,0,-2
4025.59,4,9,3,-2
4025.59,2,10,8,0
4025.59,1,10,9,0
4025.59,-2,6,9,0
4025.59,-4,8,16,4
4025.6,-4,6,17,6
4025.6,-4,0,5,-1
4025.6,-6,-2,0,-4
4025.6,-6,-5,-5,-6
4025.6,-3,-2,-5,-5
4025.6,0,0,0,1
4025.6,3,4,4,5
4025.6,6,5,5,7
4025.6,8,7,5,7
4025.6,8,7,4,4
4025.6,6,3,1,2
4025.6,4,3,2,2
4025.6,4,4,4,4
4025.6,6,5,3,4
4025.6,4,3,1,2
4025.6,2,0,-1,0
4025.6,0,0,-1,0
4025.6,2,0,0,3
4025.61,5,2,0,2
4025.61,4,0,-4,1
4025.61,4,-2,-4,3
4025.61,6,0,0,7
4025.61,8,2,2,10
4025.61,10,5,5,11
4025.61,12,6,4,8
4025.61,9,4,1,4
4025.61,5,3,0,0
4025.61,1,1,-1,-1
4025.61,1,3,0,-1
4025.61,0,5,5,0
4025.61,1,7,8,1
4025.61,1,6,5,-1
4025.61,0,5,4,-2
4025.61,0,8,8,0
4025.61,0,8,8,-1
4025.62,-1,5,4,-2
4025.62,-2,3,3,-2
4025.62,-1,2,1,-3
4025.62,-1,0,-3,-5
4025.62,0,0,-5,-5
4025.62,1,3,0,0
4025.62,5,7,5,5
4025.62,7,9,7,8
4025.62,8,8,7,7
4025.62,6,5,5,5
4025.62,3,2,5,5
4025.62,3,1,4,4
4025.62,2,0,1,3
4025.62,2,0,0,0
4025.62,2,0,-1,0
4025.62,1,0,0,0
4025.62,1,1,2,4
4025.63,4,3,4,6
4025.63,6,4,3,5
4025.63,5,0,0,4
4025.63,4,-2,-2,4
4025.63,4,-2,-3,3
4025.63,3,-2,-2,5
4025.63,6,1,0,6
4025.63,8,3,2,6
4025.63,7,3,1,4
4025.63,7,6,3,4
4025.63,6,6,3,2
4025.63,4,6,5,3
4025.63,5,8,8,4
4025.63,4,8,6,0
4025.63,1,7,4,-2
4025.63,-1,6,3,-5
4025.63,-3,5,3,-5
4025.64,-3,5,2,-5
4025.64,-4,3,1,-5
4025.64,-3,3,2,-2
4025.64,-1,2,3,0
4025.64,0,4,6,3
4025.64,1,3,5,5
4025.64,2,1,3,2
4025.64,2,3,3,4
4025.64,4,4,3,3
4025.64,4,2,1,2
4025.64,3,0,0,1
4025.64,2,2,0,2
4025.64,5,3,0,2
4025.64,5,6,6,6
4025.64,6,4,6,7
4025.64,5,2,2,4
4025.64,4,1,0,3
4025.64,3,0,0,1
4025.65,3,0,0,2
4025.65,2,0,0,3
4025.65,2,-1,0,6
4025.65,6,-1,0,7
4025.65,8,0,0,7
4025.65,7,0,0,6
4025.65,8,2,0,5
4025.65,7,2,0,4
4025.65,7,6,2,4
4025.65,8,7,2,1
4025.65,4,6,3,1
4025.65,3,5,3,0
4025.65,3,9,7,0
4025.65,2,12,13,2
4025.65,0,10,12,-1
4025.65,-7,2,6,-5
4025.65,-12,-1,3,-7
4025.66,-12,-1,2,-5
4025.66,-9,-1,2,-2
4025.66,-4,0,-1,-2
4025.66,-1,-4,-10,-5
4025.66,2,-2,-11,-4
4025.66,9,9,1,5
4025.66,16,17,11,11
4025.66,17,16,12,12
4025.66,13,11,7,7
4025.66,9,9,7,7
4025.66,5,5,4,4
4025.66,1,0,-1,0
4025.66,0,-1,-2,0
4025.66,2,1,1,1
4025.66,2,1,2,4
4025.66,3,0,0,2
4025.66,1,0,2,4
4025.66,3,2,6,7
4025.67,2,2,6,5
4025.67,0,-3,0,1
4025.67,-4,-8,-6,-2
4025.67,-3,-8,-6,0
4025.67,1,-3,-3,3
4025.67,4,-1,-1,6
4025.67,10,6,5,11
4025.67,13,8,5,10
4025.67,14,9,4,6
4025.67,9,7,3,3
4025.67,6,7,4,3
4025.67,5,6,1,0
4025.67,5,8,3,-2
4025.67,2,8,4,-3
4025.67,0,7,4,-4
4025.67,-1,8,6,-2
4025.67,-1,11,15,2
4025.68,-3,6,12,3
4025.68,-5,3,12,3
4025.68,-7,-4,0,-4
4025.68,-9,-8,-7,-8
4025.68,-7,-7,-10,-9
4025.68,-2,-3,-10,-8
4025.68,2,4,-3,0
4025.68,10,11,5,7
4025.68,14,15,12,13
4025.68,15,12,10,10
4025.68,10,6,3,5
4025.68,6,4,1,3
4025.68,4,4,2,3
4025.68,4,3,3,4
4025.68,4,1,0,1
4025.68,3,2,0,1
4025.68,3,2,0,1
4025.68,2,0,-1,0
4025.69,2,0,0,1
4025.69,2,0,0,6
4025.69,4,0,0,7
4025.69,6,0,1,8
4025.69,5,-1,2,8
4025.69,5,0,1,8
4025.69,6,1,2,6
4025.69,6,2,1,4
4025.69,5,4,2,3
4025.69,4,4,1,0
4025.69,2,4,2,0
4025.69,3,6,4,1
4025.69,3,8,5,0
4025.69,2,8,5,-2
4025.69,0,6,3,-4
4025.69,-2,5,3,-4
4025.69,0,7,5,-2
4025.7,0,7,6,-1
4025.7,-2,5,5,-2
4025.7,-4,1,2,-2
4025.7,-4,-3,-1,-3
4025.7,-3,-2,-2,-2
4025.7,0,2,1,1
4025.7,3,5,2,3
4025.7,6,5,1,3
4025.7,8,8,3,4
4025.7,10,10,7,8
4025.7,10,10,8,8
4025.7,7,5,6,7
4025.7,6,1,2,4
4025.7,3,0,0,3
4025.7,4,2,5,7
4025.7,3,1,2,3
4025.7,0,-2,0,0
4025.71,0,0,-1,0
4025.71,0,-1,-1,1
4025.71,0,-4,-3,1
4025.71,0,-6,-5,2
4025.71,3,-2,-1,6
4025.71,6,0,0,9
4025.71,9,2,2,10
4025.71,10,3,2,7
4025.71,8,4,3,6
