Program Time [s],data 0,data 1,data 2,data 3
3931.74,5,3,-1,1
3931.74,7,7,2,5
3931.74,8,7,5,6
3931.74,7,4,3,5
3931.74,4,1,1,4
3931.75,4,1,0,3
3931.75,4,0,1,3
3931.75,2,-2,-2,4
3931.75,3,-4,-3,5
3931.75,4,-2,0,7
3931.75,6,-1,0,8
3931.75,6,0,0,7
3931.75,6,2,2,7
3931.75,7,4,5,7
3931.75,6,5,7,6
3931.75,5,5,3,1
3931.75,1,1,-3,-4
3931.75,1,4,-1,-5
3931.75,0,7,2,-3
3931.75,2,9,4,-3
3931.75,2,10,6,-2
3931.75,0,9,4,-3
3931.75,0,8,4,-2
3931.76,0,7,7,0
3931.76,0,7,7,0
3931.76,0,4,4,0
3931.76,-1,2,2,0
3931.76,-1,1,0,-1
3931.76,0,0,-1,-1
3931.76,0,1,2,3
3931.76,3,5,8,8
3931.76,6,6,9,9
3931.76,4,2,4,4
3931.76,1,-1,-2,0
3931.76,0,-1,-2,0
3931.76,2,0,0,3
3931.76,4,1,0,3
3931.76,4,1,-1,2
3931.76,7,2,-3,0
3931.76,7,4,0,2
3931.77,8,8,7,9
3931.77,8,6,9,12
3931.77,6,0,1,7
3931.77,4,-3,-4,4
3931.77,4,-2,-3,3
3931.77,3,-4,-4,4
3931.77,5,0,0,5
3931.77,8,5,6,10
3931.77,10,9,9,9
3931.77,8,6,6,5
3931.77,2,1,1,0
3931.77,-1,2,3,0
3931.77,1,6,6,1
3931.77,0,8,7,0
3931.77,-1,6,5,-4
3931.77,-5,1,0,-9
3931.77,-7,2,0,-8
3931.77,-5,3,2,-4
3931.78,0,5,0,-5
3931.78,0,7,0,-4
3931.78,1,5,0,-3
3931.78,2,4,1,0
3931.78,5,7,6,5
3931.78,7,8,7,6
3931.78,8,8,8,7
3931.78,7,8,9,9
3931.78,5,1,2,3
3931.78,0,-1,-2,0
3931.78,0,-1,-1,1
3931.78,2,1,0,2
3931.78,3,1,0,2
3931.78,4,2,2,4
3931.78,5,4,4,6
3931.78,6,5,6,7
3931.78,6,4,5,6
3931.79,3,1,2,3
3931.79,0,-6,-5,1
3931.79,0,-7,-5,3
3931.79,3,-3,-3,5
3931.79,6,-1,-4,3
3931.79,8,0,-3,4
3931.79,10,5,1,5
3931.79,10,7,5,7
3931.79,10,8,6,6
3931.79,6,7,5,3
3931.79,4,4,1,1
3931.79,3,5,1,0
3931.79,4,8,3,-1
3931.79,2,9,4,-2
3931.79,1,10,7,-1
3931.79,0,8,5,-4
3931.79,-1,7,4,-6
3931.79,-3,4,1,-7
3931.8,-3,2,0,-5
3931.8,-3,3,2,-2
3931.8,-2,2,5,2
3931.8,1,2,6,4
3931.8,1,1,2,2
3931.8,0,0,0,1
3931.8,1,1,2,4
3931.8,4,5,8,8
3931.8,7,7,8,8
3931.8,6,5,8,8
3931.8,5,2,4,4
3931.8,3,0,0,1
3931.8,1,0,-1,0
3931.8,0,-1,-1,0
3931.8,1,0,0,1
3931.8,4,2,1,4
3931.8,5,3,3,5
3931.81,6,3,3,5
3931.81,3,-1,-1,5
3931.81,4,-2,-1,6
3931.81,6,-1,0,6
3931.81,6,-1,0,6
3931.81,7,1,0,6
3931.81,7,2,0,4
3931.81,6,3,-1,2
3931.81,8,7,2,2
3931.81,6,6,3,1
3931.81,4,6,1,0
3931.81,5,8,5,1
3931.81,5,10,5,0
3931.81,2,8,3,-4
3931.81,0,8,3,-4
3931.81,0,8,5,-3
3931.81,0,8,5,-3
3931.82,-1,6,6,-3
3931.82,-2,6,7,0
3931.82,-3,3,7,1
3931.82,-2,0,3,0
3931.82,-2,-1,0,0
3931.82,-1,0,0,0
3931.82,0,0,0,1
3931.82,1,1,2,2
3931.82,4,3,3,5
3931.82,6,5,6,6
3931.82,6,4,4,6
3931.82,4,3,3,5
3931.82,4,3,3,4
3931.82,4,3,3,4
3931.82,4,1,-1,1
3931.82,3,-1,-5,0
3931.82,4,1,-2,0
3931.82,4,3,-1,2
3931.83,5,2,0,4
3931.83,5,0,0,7
3931.83,8,1,2,9
3931.83,8,1,0,7
3931.83,6,0,0,7
3931.83,7,2,4,8
3931.83,8,4,4,7
3931.83,7,4,3,3
3931.83,4,3,0,0
3931.83,1,2,0,-1
3931.83,0,1,0,-1
3931.83,1,4,2,-2
3931.83,0,5,3,0
3931.83,3,11,11,3
3931.83,1,13,16,5
3931.83,0,8,11,1
3931.83,-4,2,2,-6
3931.84,-7,0,0,-7
3931.84,-6,0,0,-6
3931.84,-6,-3,-5,-7
3931.84,-4,-2,-6,-5
3931.84,0,2,-1,0
3931.84,5,6,3,4
3931.84,8,8,5,6
3931.84,10,9,7,8
3931.84,9,9,8,9
3931.84,8,7,6,8
3931.84,7,4,3,6
3931.84,6,1,0,1
3931.84,3,0,-3,0
3931.84,2,0,-1,1
3931.84,3,2,1,4
3931.84,6,3,1,3
3931.84,5,1,0,1
3931.84,3,0,0,2
3931.85,2,0,0,3
3931.85,3,0,0,7
3931.85,7,1,3,8
3931.85,6,1,2,7
3931.85,5,0,0,6
3931.85,5,0,0,4
3931.85,5,0,0,4
3931.85,4,2,1,2
3931.85,4,3,0,1
3931.85,4,4,0,0
3931.85,3,5,3,0
3931.85,3,7,5,0
3931.85,3,10,6,0
3931.85,2,10,7,0
3931.85,0,8,6,-2
3931.85,0,6,4,-4
3931.85,-2,5,4,-3
3931.86,-3,4,5,-1
3931.86,-3,3,3,-2
3931.86,-2,1,2,0
3931.86,0,1,1,0
3931.86,0,2,2,2
3931.86,1,2,3,3
3931.86,3,3,4,5
3931.86,4,4,4,5
3931.86,5,4,3,4
3931.86,3,2,0,1
3931.86,3,0,0,2
3931.86,3,2,1,3
3931.86,5,2,0,3
3931.86,6,4,0,2
3931.86,5,2,0,2
3931.86,5,3,1,3
3931.86,6,5,4,6
3931.87,6,4,3,5
3931.87,3,-1,0,5
3931.87,2,-2,1,8
3931.87,3,-5,-3,5
3931.87,2,-4,-2,7
3931.87,7,1,2,9
3931.87,8,3,5,9
3931.87,8,5,5,6
3931.87,4,2,0,1
3931.87,2,3,2,1
3931.87,3,4,3,0
3931.87,2,4,3,-1
3931.87,1,5,-1,-6
3931.87,0,5,-2,-8
3931.87,0,7,0,-7
3931.87,2,10,4,-4
3931.87,3,13,9,0
3931.87,3,13,13,3
3931.88,1,10,13,5
3931.88,0,5,8,1
3931.88,-3,0,3,0
3931.88,-4,-3,0,-2
3931.88,-4,-3,-2,-2
3931.88,-2,-2,-2,0
3931.88,1,2,0,1
3931.88,3,3,2,3
3931.88,5,4,1,2
3931.88,5,4,1,2
3931.88,6,6,2,3
3931.88,6,4,1,4
3931.88,7,4,3,6
3931.88,7,4,4,6
3931.88,6,3,4,7
3931.88,6,4,6,9
3931.88,5,2,5,7
3931.89,2,-3,-2,1
3931.89,0,-6,-7,0
3931.89,2,-5,-5,2
3931.89,4,-1,-1,4
3931.89,4,-1,0,6
3931.89,7,1,3,10
3931.89,9,5,7,10
3931.89,8,6,8,9
3931.89,6,4,3,2
3931.89,1,1,0,-1
3931.89,0,0,-2,-3
3931.89,0,2,-2,-5
3931.89,1,7,1,-3
3931.89,2,11,7,0
3931.89,3,12,8,0
3931.89,3,12,7,-1
3931.89,2,11,7,-1
3931.9,0,8,5,-2
3931.9,-2,4,2,-4
3931.9,-4,0,-1,-4
3931.9,-2,0,0,-1
3931.9,0,1,2,1
3931.9,1,3,5,5
3931.9,3,3,6,5
3931.9,3,3,5,4
3931.9,3,2,4,5
3931.9,5,2,2,3
3931.9,3,1,0,1
3931.9,1,0,-2,0
3931.9,3,1,-2,0
3931.9,5,4,2,3
3931.9,5,3,1,4
3931.9,6,2,0,1
3931.9,5,3,0,3
3931.9,6,4,2,4
3931.91,6,3,3,6
3931.91,5,0,2,9
3931.91,5,0,2,9
3931.91,6,-1,2,8
3931.91,5,-1,0,6
3931.91,5,-2,-2,3
3931.91,5,0,-1,3
3931.91,4,1,0,2
3931.91,5,3,0,0
3931.91,5,6,3,2
3931.91,5,9,6,2
3931.91,4,9,7,0
3931.91,2,8,5,-2
3931.91,1,9,5,-3
3931.91,0,8,4,-4
3931.91,-2,6,2,-5
3931.91,-3,4,2,-5
3931.92,-3,3,2,-3
3931.92,-1,4,3,-1
3931.92,-1,3,4,1
3931.92,1,4,4,2
3931.92,0,3,4,3
3931.92,2,3,4,3
3931.92,3,3,5,5
3931.92,4,4,4,4
3931.92,3,3,3,3
3931.92,2,1,0,2
3931.92,2,1,0,2
3931.92,3,1,1,3
3931.92,3,0,0,3
3931.92,4,2,0,4
3931.92,6,2,1,4
3931.92,6,4,3,6
3931.92,6,5,4,5
3931.92,4,0,0,3
3931.93,2,-3,-3,4
3931.93,3,-3,-1,5
3931.93,5,-1,0,6
3931.93,6,0,0,7
3931.93,7,0,0,6
3931.93,7,2,1,6
3931.93,7,5,4,7
3931.93,7,6,5,5
3931.93,4,5,3,2
3931.93,3,3,3,0
3931.93,3,5,3,0
3931.93,2,7,4,-2
3931.93,0,6,3,-3
3931.93,-1,8,5,-4
3931.93,-1,7,5,-3
3931.93,-1,7,3,-4
3931.93,-2,6,3,-3
3931.94,-2,4,2,-3
3931.94,-2,3,0,-3
3931.94,-2,2,3,0
3931.94,1,4,5,4
3931.94,3,4,6,5
3931.94,3,2,2,2
3931.94,2,1,2,3
3931.94,4,3,3,4
3931.94,4,2,1,3
3931.94,4,3,2,3
3931.94,4,2,1,3
3931.94,5,3,3,5
3931.94,5,4,5,6
3931.94,4,1,2,4
3931.94,3,0,-2,1
3931.94,3,0,-3,0
3931.94,3,1,-1,1
3931.95,5,3,0,3
3931.95,4,0,0,4
3931.95,5,0,0,6
3931.95,7,1,1,7
3931.95,7,2,5,11
3931.95,8,2,4,9
3931.95,6,-1,-1,3
3931.95,4,0,0,2
3931.95,3,2,0,0
3931.95,4,4,0,0
3931.95,4,6,3,1
3931.95,5,8,6,1
3931.95,3,9,9,2
3931.95,3,11,11,2
3931.95,0,9,10,0
3931.95,-3,6,5,-4
3931.95,-5,2,1,-6
3931.95,-6,0,-1,-9
3931.96,-6,0,-2,-7
3931.96,-4,0,-2,-5
3931.96,-2,-1,-5,-3
3931.96,2,3,0,3
3931.96,7,9,9,9
3931.96,10,11,13,12
3931.96,9,10,15,15
3931.96,7,6,12,11
3931.96,2,-1,2,2
3931.96,-1,-4,-2,-1
3931.96,-2,-5,-7,-3
3931.96,-1,-3,-5,-3
3931.96,2,0,-3,0
3931.96,5,3,-1,1
3931.96,9,6,2,5
3931.96,10,6,0,3
3931.96,8,4,0,3
3931.97,7,4,2,7
3931.97,7,1,2,10
3931.97,8,1,1,8
3931.97,7,1,1,7
3931.97,5,0,1,8
3931.97,5,0,2,6
3931.97,4,0,2,4
3931.97,4,2,4,4
3931.97,3,4,4,3
3931.97,1,1,2,0
3931.97,0,1,0,-1
3931.97,0,4,0,-4
3931.97,0,6,0,-5
3931.97,2,10,4,-4
3931.97,0,10,5,-3
3931.97,0,10,7,-1
3931.97,0,9,8,-1
3931.97,0,7,5,-1
3931.98,-1,4,3,-2
3931.98,-3,0,0,-1
3931.98,-1,0,1,1
3931.98,0,2,2,3
3931.98,4,4,4,4
3931.98,4,4,3,4
3931.98,4,4,3,3
3931.98,4,3,3,4
3931.98,4,3,3,3
3931.98,3,1,2,3
3931.98,3,1,0,2
3931.98,3,2,0,2
3931.98,3,2,2,4
3931.98,5,2,1,3
3931.98,5,3,2,4
3931.98,4,2,1,3
3931.98,4,1,0,3
3931.99,2,-1,0,4
3931.99,3,-2,-1,5
3931.99,6,-1,-1,6
3931.99,7,0,0,6
3931.99,6,0,0,8
3931.99,8,3,2,8
3931.99,8,3,2,5
3931.99,8,4,1,3
3931.99,4,3,1,1
3931.99,2,3,0,0
3931.99,2,5,2,0
3931.99,3,7,2,-2
3931.99,2,8,5,-1
3931.99,1,8,5,-2
3931.99,0,9,6,-2
3931.99,0,10,7,-1
3931.99,0,7,6,-3
3931.99,-2,4,3,-3
3932,-3,3,4,-2
3932,-3,1,3,0
3932,-1,2,4,2
3932,0,1,2,1
3932,0,0,1,1
3932,1,1,1,3
3932,2,2,1,4
3932,4,4,5,7
3932,5,4,6,6
3932,4,1,1,3
3932,4,2,0,3
3932,4,1,-1,1
3932,4,1,-2,0
3932,3,3,0,2
3932,5,4,3,5
3932,7,5,5,7
3932,6,5,4,6
3932.01,3,-1,0,4
3932.01,2,-2,0,6
3932.01,4,-3,-1,5
3932.01,4,-3,-3,4
3932.01,5,-2,-5,2
3932.01,7,0,-2,3
3932.01,8,4,0,4
3932.01,9,8,3,4
3932.01,9,9,8,7
3932.01,8,11,10,6
3932.01,5,9,10,4
3932.01,1,9,13,4
3932.01,-2,3,5,-3
3932.01,-7,0,0,-9
3932.01,-7,0,-1,-9
3932.01,-7,1,0,-6
3932.01,-5,0,-1,-6
3932.02,-2,3,0,-5
3932.02,0,6,4,1
3932.02,3,7,7,5
3932.02,5,7,8,5
3932.02,3,2,0,0
3932.02,2,-1,-7,-5
3932.02,3,3,-3,0
3932.02,9,8,2,3
3932.02,10,10,6,7
3932.02,10,10,9,9
3932.02,8,7,6,7
3932.02,8,8,9,8
3932.02,5,6,7,6
3932.02,1,-2,-2,-1
3932.02,-2,-4,-5,-2
3932.02,-1,-3,-4,-1
3932.02,0,0,0,3
3932.02,2,1,5,7
3932.03,2,-3,2,8
3932.03,3,-5,-2,7
3932.03,4,-2,0,7
3932.03,6,-1,0,6
3932.03,6,0,0,5
3932.03,7,2,0,5
3932.03,7,4,1,4
3932.03,8,8,5,4
3932.03,7,9,5,3
3932.03,4,5,3,0
3932.03,2,6,3,-1
3932.03,2,8,5,-1
3932.03,1,8,5,-2
3932.03,0,7,2,-5
3932.03,-1,6,2,-6
3932.03,-2,6,4,-3
3932.03,0,7,5,-2
3932.04,-1,5,5,0
3932.04,-1,3,3,0
3932.04,-1,1,1,0
3932.04,0,0,1,2
3932.04,2,3,5,4
3932.04,4,4,3,4
3932.04,4,3,1,2
3932.04,3,2,1,3
3932.04,3,2,1,4
3932.04,5,3,3,5
3932.04,4,4,4,5
3932.04,5,3,3,5
3932.04,4,1,0,2
3932.04,2,0,0,3
3932.04,5,3,2,5
3932.04,6,4,3,5
3932.04,4,2,0,1
3932.04,1,-2,-2,1
3932.05,0,-5,-4,3
3932.05,4,-1,-1,5
3932.05,5,-1,-1,5
3932.05,6,0,0,8
3932.05,10,3,3,8
3932.05,8,4,2,5
3932.05,8,5,2,3
3932.05,6,5,2,2
3932.05,6,6,1,0
3932.05,4,5,2,0
3932.05,5,10,8,1
3932.05,2,11,10,1
3932.05,0,7,7,-2
3932.05,-3,6,7,-2
3932.05,-4,4,6,-3
3932.05,-6,2,2,-6
3932.05,-6,0,0,-5
3932.06,-5,0,0,-4
3932.06,-2,1,0,-1
3932.06,0,2,1,0
3932.06,2,4,2,2
3932.06,5,6,4,3
3932.06,5,6,5,6
3932.06,6,5,6,8
3932.06,6,5,5,7
3932.06,5,3,2,4
3932.06,3,0,0,2
3932.06,2,0,0,1
3932.06,3,0,-1,1
3932.06,5,5,1,2
3932.06,6,5,3,4
3932.06,6,7,9,8
3932.06,5,4,6,7
3932.06,2,0,2,3
3932.06,0,-4,-1,4
3932.07,0,-6,-3,4
3932.07,1,-6,-5,2
3932.07,1,-5,-6,2
3932.07,6,-1,-5,3
3932.07,11,4,-1,4
3932.07,13,9,2,4
3932.07,10,9,4,5
3932.07,9,9,5,5
3932.07,9,10,5,3
3932.07,6,9,5,1
3932.07,4,9,4,-1
3932.07,0,6,3,-4
3932.07,-2,7,5,-4
3932.07,-2,6,5,-2
3932.07,-2,7,7,-2
3932.07,-2,5,4,-4
3932.07,-4,2,1,-5
3932.08,-5,1,1,-3
3932.08,-3,0,0,-1
3932.08,0,1,1,0
3932.08,1,4,4,3
3932.08,4,5,5,4
3932.08,4,4,4,4
3932.08,4,4,4,5
3932.08,4,3,3,5
3932.08,4,1,0,2
3932.08,3,1,0,3
3932.08,4,1,0,3
3932.08,6,4,3,5
3932.08,6,4,3,4
3932.08,5,3,2,3
3932.08,4,2,1,3
3932.08,4,2,0,3
3932.08,4,1,1,5
3932.09,3,-2,0,6
3932.09,3,-2,0,7
3932.09,6,0,0,5
3932.09,4,-2,0,6
3932.09,7,1,2,7
3932.09,6,2,2,6
3932.09,6,3,3,4
3932.09,5,3,2,1
3932.09,2,3,1,0
3932.09,3,4,3,0
3932.09,2,4,1,-1
3932.09,0,6,2,-2
3932.09,1,10,7,-1
3932.09,1,10,8,-1
3932.09,0,9,7,-2
3932.09,-1,7,5,-2
3932.09,-1,5,5,-2
3932.09,-1,4,2,-3
3932.1,-2,0,0,-4
3932.1,-2,0,0,0
3932.1,0,3,2,3
3932.1,3,2,2,3
3932.1,5,4,3,5
3932.1,7,5,3,4
3932.1,5,3,1,2
3932.1,4,3,2,3
3932.1,4,3,3,5
3932.1,4,3,3,5
3932.1,5,5,5,4
3932.1,4,2,3,3
3932.1,2,1,0,1
3932.1,1,0,-1,0
3932.1,2,0,-2,0
3932.1,3,0,-3,0
3932.1,3,0,-2,2
3932.11,4,-1,-1,6
3932.11,7,0,1,9
3932.11,9,3,4,11
3932.11,10,3,6,13
3932.11,10,4,4,8
3932.11,6,0,0,4
3932.11,5,1,0,1
3932.11,3,2,0,0
3932.11,3,3,0,-1
3932.11,2,4,0,-3
3932.11,2,7,2,-3
3932.11,3,10,6,-1
3932.11,1,10,8,0
3932.11,0,8,6,-1
3932.11,0,10,11,2
3932.11,-1,7,15,6
3932.11,-2,1,6,0
3932.11,-6,-2,0,-5
3932.12,-8,-5,-5,-6
3932.12,-5,-2,-2,-2
3932.12,-1,2,1,1
3932.12,2,3,4,4
3932.12,5,6,5,6
3932.12,6,5,4,5
3932.12,7,6,4,5
3932.12,5,4,2,3
3932.12,4,2,0,3
3932.12,4,3,1,3
3932.12,6,3,2,4
3932.12,5,3,1,3
3932.12,5,2,1,2
3932.12,4,2,2,4
3932.12,4,3,4,5
3932.12,4,2,2,4
3932.12,1,-2,-1,5
3932.13,2,-4,0,6
3932.13,4,-3,-1,6
3932.13,5,-2,-2,4
3932.13,6,-2,-6,0
3932.13,7,1,-5,0
3932.13,8,6,0,3
3932.13,10,9,2,3
3932.13,9,10,7,5
3932.13,8,11,10,7
3932.13,8,10,8,4
3932.13,3,6,3,-2
3932.13,-1,5,3,-4
3932.13,-1,5,4,-3
3932.13,-1,6,5,-3
3932.13,-1,4,2,-7
3932.13,-4,3,0,-7
3932.13,-4,3,1,-5
3932.14,-2,3,3,-1
3932.14,-1,3,4,2
3932.14,2,5,6,4
3932.14,2,4,6,4
3932.14,1,2,3,3
3932.14,2,1,1,2
3932.14,1,1,1,3
3932.14,4,3,1,3
3932.14,4,2,0,2
3932.14,3,1,0,4
3932.14,5,2,0,4
3932.14,6,4,2,5
3932.14,7,5,4,5
3932.14,6,3,3,5
3932.14,5,3,2,2
3932.14,3,1,0,1
3932.14,2,0,0,3
3932.14,2,-3,-1,5
3932.15,4,-2,-1,6
3932.15,7,0,0,7
3932.15,7,0,0,8
3932.15,7,1,0,6
3932.15,7,2,0,3
3932.15,6,2,0,1
3932.15,5,4,0,1
3932.15,5,6,2,1
3932.15,5,6,4,1
3932.15,4,8,6,1
3932.15,3,9,7,1
3932.15,1,8,9,0
3932.15,0,9,12,3
3932.15,-1,5,8,-1
3932.15,-5,1,1,-7
3932.15,-7,0,0,-7
3932.15,-5,1,0,-6
3932.16,-5,0,0,-3
3932.16,-2,0,1,0
3932.16,0,2,2,2
3932.16,4,4,3,2
3932.16,5,5,3,4
3932.16,5,4,3,4
3932.16,6,5,3,4
3932.16,7,6,3,5
3932.16,7,5,3,5
3932.16,6,5,3,4
3932.16,4,4,5,7
3932.16,4,3,6,7
3932.16,2,1,5,7
3932.16,2,1,5,6
3932.16,1,0,2,2
3932.16,-1,-3,-3,-1
3932.16,-3,-8,-9,-4
3932.17,-2,-9,-13,-3
3932.17,2,-5,-11,-1
3932.17,8,0,-7,1
3932.17,12,6,0,9
3932.17,18,12,8,13
3932.17,17,13,9,13
3932.17,15,13,13,13
3932.17,11,11,12,9
3932.17,4,5,5,2
3932.17,-1,0,0,-1
3932.17,-2,2,1,-3
3932.17,-2,3,2,-4
3932.17,-3,3,2,-5
3932.17,-5,1,-1,-8
3932.17,-5,1,-3,-9
3932.17,-2,6,2,-4
3932.17,0,9,6,0
3932.17,2,9,6,0
3932.18,0,4,4,1
3932.18,0,3,4,2
3932.18,2,4,4,3
3932.18,2,3,3,3
3932.18,3,3,3,3
3932.18,3,3,3,4
3932.18,4,4,4,4
3932.18,4,2,2,3
3932.18,4,3,2,3
3932.18,4,2,1,2
3932.18,4,3,2,3
3932.18,4,2,1,2
3932.18,3,1,0,2
3932.18,3,0,0,1
3932.18,2,0,0,2
3932.18,3,0,0,4
3932.18,3,-2,-2,5
3932.19,5,-2,-1,6
3932.19,7,0,0,7
3932.19,7,0,1,8
3932.19,7,2,3,10
3932.19,9,6,8,11
3932.19,9,8,9,9
3932.19,6,4,6,5
3932.19,2,1,0,0
3932.19,-1,0,-1,-3
3932.19,0,2,0,-2
3932.19,0,4,3,-2
3932.19,0,6,3,-3
3932.19,0,6,2,-5
3932.19,0,7,2,-5
3932.19,1,10,6,-3
3932.19,0,8,5,-3
3932.19,0,4,0,-6
3932.19,-1,4,0,-4
3932.2,1,5,1,0
3932.2,3,5,2,0
3932.2,3,5,3,2
3932.2,4,4,6,6
3932.2,5,6,10,10
3932.2,7,6,11,10
3932.2,4,1,6,7
3932.2,0,-2,-1,0
3932.2,-2,-5,-3,0
3932.2,1,0,1,4
3932.2,4,3,4,4
3932.2,4,2,1,2
3932.2,2,0,0,1
3932.2,2,0,0,1
3932.2,3,2,1,2
3932.2,4,2,1,3
3932.2,3,-1,0,5
3932.21,5,0,0,8
3932.21,7,0,0,7
3932.21,7,0,0,8
3932.21,7,0,0,6
3932.21,7,1,0,5
3932.21,7,4,3,5
3932.21,8,6,2,3
3932.21,5,6,3,1
3932.21,5,6,2,0
3932.21,4,7,2,-2
3932.21,2,7,1,-4
3932.21,0,7,2,-4
3932.21,0,9,6,-2
3932.21,0,10,6,-2
3932.21,-1,4,0,-7
3932.21,-2,5,2,-3
3932.21,0,7,6,0
3932.21,0,5,6,0
3932.22,-1,3,7,5
3932.22,0,1,6,4
3932.22,0,0,4,3
3932.22,-1,0,5,5
3932.22,0,0,1,2
3932.22,0,-1,-1,1
3932.22,1,0,0,2
3932.22,3,2,3,4
3932.22,5,3,2,4
3932.22,5,2,0,2
3932.22,5,3,0,2
3932.22,5,3,1,3
3932.22,7,4,2,4
3932.22,6,5,4,5
3932.22,6,5,4,5
3932.22,4,1,1,5
3932.22,3,-2,0,5
3932.23,3,-3,-2,5
3932.23,6,-1,-2,4
3932.23,5,-2,-3,4
3932.23,7,1,0,5
3932.23,8,3,1,5
3932.23,8,6,3,4
3932.23,7,5,3,3
3932.23,4,6,5,4
3932.23,4,6,5,2
3932.23,3,6,3,-1
3932.23,0,6,4,-2
3932.23,0,7,5,-4
3932.23,-1,7,5,-3
3932.23,-2,6,3,-4
3932.23,-2,6,4,-3
3932.23,-1,5,4,-3
3932.23,-1,5,3,-3
3932.23,-2,2,1,-1
3932.24,0,2,2,0
3932.24,0,2,1,0
3932.24,1,2,2,2
3932.24,3,3,3,4
3932.24,4,4,4,5
3932.24,5,4,4,6
3932.24,6,3,3,6
3932.24,5,4,5,6
3932.24,4,3,4,5
3932.24,4,2,2,3
3932.24,2,0,0,2
3932.24,2,0,0,2
3932.24,3,2,0,1
3932.24,3,2,0,0
3932.24,3,0,-2,0
3932.24,2,-1,-4,1
3932.24,5,-1,-2,4
3932.25,7,1,1,8
3932.25,7,0,0,8
3932.25,7,0,0,9
3932.25,9,3,5,11
3932.25,10,5,5,8
3932.25,8,5,4,5
3932.25,5,4,1,1
3932.25,1,3,2,0
3932.25,1,4,3,0
3932.25,1,5,5,0
3932.25,0,5,3,-2
3932.25,0,5,2,-5
3932.25,-1,5,0,-7
3932.25,-1,6,1,-6
3932.25,-1,7,2,-5
3932.25,0,7,2,-4
3932.25,0,5,0,-3
3932.26,1,6,3,1
3932.26,5,9,11,7
3932.26,5,8,13,11
3932.26,3,1,5,4
3932.26,0,-1,0,1
3932.26,-1,-1,0,0
3932.26,-1,-1,0,0
3932.26,-2,-3,-2,0
3932.26,0,0,0,2
3932.26,5,4,0,3
3932.26,8,6,1,4
3932.26,9,7,2,4
3932.26,8,6,2,4
3932.26,6,5,6,8
3932.26,7,5,6,9
3932.26,7,4,5,7
3932.26,2,-2,0,5
3932.26,0,-6,-2,4
3932.27,0,-7,-5,3
3932.27,2,-5,-3,5
3932.27,7,0,0,6
3932.27,8,5,3,6
3932.27,9,7,6,6
3932.27,7,6,4,4
3932.27,4,3,1,0
3932.27,3,3,0,-2
3932.27,1,4,2,-1
3932.27,0,6,3,-1
3932.27,0,7,6,0
3932.27,1,10,9,0
3932.27,1,8,6,-1
3932.27,-1,6,3,-6
3932.27,-3,3,1,-5
3932.27,-4,3,3,-2
3932.27,-1,4,4,0
3932.28,1,4,4,1
3932.28,2,3,2,1
3932.28,1,3,2,1
3932.28,2,1,1,2
3932.28,4,4,3,3
3932.28,4,3,2,4
3932.28,5,3,2,3
3932.28,3,1,1,2
3932.28,3,2,2,4
3932.28,5,4,3,5
3932.28,6,4,2,4
3932.28,4,2,1,3
3932.28,4,2,2,4
3932.28,4,3,3,4
3932.28,4,2,2,3
3932.28,3,1,0,4
3932.28,3,-2,-1,4
3932.28,4,-3,-2,5
3932.29,5,0,-1,5
3932.29,5,-1,0,6
3932.29,6,0,0,5
3932.29,7,2,0,5
3932.29,8,4,3,5
3932.29,7,6,4,4
3932.29,6,7,5,3
3932.29,4,6,4,1
3932.29,3,6,3,-1
3932.29,0,5,2,-3
3932.29,0,6,2,-4
3932.29,0,8,5,-3
3932.29,-1,7,4,-3
3932.29,-2,6,5,-3
3932.29,-2,4,4,-2
3932.29,-2,4,3,-1
3932.29,-2,2,4,0
3932.3,0,2,4,3
3932.3,1,3,4,4
3932.3,2,2,3,3
3932.3,3,2,2,2
3932.3,2,2,1,2
3932.3,3,2,2,3
3932.3,4,4,3,5
3932.3,6,4,2,4
3932.3,5,4,2,3
3932.3,4,3,1,2
3932.3,4,3,2,3
3932.3,5,3,1,3
3932.3,4,4,2,3
3932.3,4,3,2,3
3932.3,3,0,0,2
3932.3,1,-2,-1,3
3932.3,2,-3,-3,5
3932.3,5,-3,-1,6
3932.31,7,0,0,8
3932.31,7,0,1,8
3932.31,8,3,3,7
3932.31,8,4,4,7
3932.31,8,6,4,4
3932.31,5,4,2,2
3932.31,3,5,2,1
3932.31,1,3,1,0
3932.31,1,6,3,-1
3932.31,1,6,4,-3
3932.31,0,7,4,-4
3932.31,-1,5,1,-6
3932.31,-2,6,2,-5
3932.31,-1,7,4,-4
3932.31,0,6,3,-3
3932.31,0,5,2,-2
3932.31,0,3,0,-1
3932.32,1,4,4,3
3932.32,4,6,6,5
3932.32,4,7,9,8
3932.32,4,5,9,8
3932.32,2,2,5,5
3932.32,1,0,1,2
3932.32,0,-1,0,1
3932.32,0,0,0,3
3932.32,2,0,2,4
3932.32,1,0,1,3
3932.32,2,1,0,2
3932.32,2,1,1,4
3932.32,4,3,2,4
3932.32,5,3,2,4
3932.32,4,2,0,2
3932.32,3,-2,-3,1
3932.32,3,-2,-4,3
3932.33,5,-1,-3,3
3932.33,6,-1,-4,4
3932.33,9,2,0,7
3932.33,13,9,5,10
3932.33,13,11,7,8
3932.33,11,9,5,4
3932.33,6,6,3,2
3932.33,3,5,2,0
3932.33,1,3,2,-1
3932.33,0,4,2,-2
3932.33,0,4,2,-2
3932.33,-1,4,3,-3
3932.33,-1,6,5,-2
3932.33,0,9,7,-3
3932.33,-2,5,4,-3
3932.33,-4,2,1,-4
3932.33,-3,2,2,-1
3932.33,-1,1,2,0
3932.34,1,2,4,3
3932.34,2,3,5,4
3932.34,3,2,2,2
3932.34,3,2,0,2
3932.34,4,2,0,2
3932.34,6,3,-1,0
3932.34,5,2,-2,0
3932.34,5,4,0,2
3932.34,8,8,6,7
3932.34,10,11,9,8
3932.34,8,10,11,9
3932.34,5,3,6,6
3932.34,1,0,1,2
3932.34,-1,-3,-2,0
3932.34,-1,-2,-1,1
3932.34,-2,-9,-6,0
3932.34,-1,-7,-3,4
3932.35,3,-2,2,9
3932.35,7,0,2,10
3932.35,8,1,1,7
3932.35,7,1,-1,2
3932.35,5,0,-5,-1
3932.35,4,3,-2,-1
3932.35,7,7,1,1
3932.35,7,10,9,7
3932.35,9,12,12,7
3932.35,7,11,10,4
3932.35,5,11,11,3
3932.35,2,10,11,1
3932.35,-1,6,6,-2
3932.35,-5,2,1,-7
3932.35,-6,1,0,-7
3932.35,-5,2,0,-7
3932.35,-7,0,-1,-7
3932.35,-6,-1,-1,-2
3932.36,-2,1,2,1
3932.36,2,4,4,3
3932.36,3,2,3,4
3932.36,3,2,0,3
3932.36,4,2,0,1
3932.36,6,5,2,4
3932.36,9,7,2,5
3932.36,10,8,2,5
3932.36,10,7,0,2
3932.36,8,7,4,7
3932.36,8,7,7,8
3932.36,5,5,8,9
3932.36,5,2,8,9
3932.36,2,-2,0,2
3932.36,-2,-8,-7,-3
3932.36,-5,-10,-9,-1
3932.36,-1,-7,-5,3
3932.37,4,0,0,7
3932.37,8,1,2,9
3932.37,10,4,3,7
3932.37,9,4,2,6
3932.37,8,5,3,4
3932.37,5,6,6,6
3932.37,6,7,7,4
3932.37,3,6,4,2
3932.37,1,5,3,-1
3932.37,0,5,2,-5
3932.37,-1,6,4,-4
3932.37,-3,7,8,-1
3932.37,-2,7,11,2
3932.37,-1,5,6,-1
3932.37,-3,1,0,-7
3932.37,-6,0,-2,-7
3932.37,-6,-2,-5,-7
3932.38,-2,-1,-6,-5
3932.38,2,3,-2,-1
3932.38,7,8,2,4
3932.38,12,13,7,8
3932.38,13,12,9,10
3932.38,12,11,10,10
3932.38,10,7,7,7
3932.38,6,4,3,3
3932.38,1,0,1,1
3932.38,0,0,0,0
3932.38,0,-1,-1,1
3932.38,1,0,0,2
3932.38,2,0,0,1
3932.38,2,0,1,2
3932.38,3,0,0,2
3932.38,1,-1,0,5
3932.38,4,-2,0,7
3932.38,5,-1,0,8
3932.39,6,-2,-1,6
3932.39,5,-1,0,6
3932.39,8,2,2,6
3932.39,9,5,4,6
3932.39,8,6,4,3
3932.39,5,5,2,1
3932.39,3,4,3,1
3932.39,3,6,3,0
3932.39,3,7,4,0
3932.39,0,5,3,-2
3932.39,0,8,5,-2
3932.39,0,7,5,-3
3932.39,-1,7,4,-4
3932.39,-1,8,6,-2
3932.39,-2,5,4,-2
3932.39,-1,4,3,-2
3932.39,-2,3,4,0
3932.4,-1,1,2,1
3932.4,-1,0,0,1
3932.4,1,0,0,2
3932.4,3,0,0,3
3932.4,4,0,0,4
3932.4,7,4,3,5
3932.4,8,5,4,7
3932.4,8,7,6,8
3932.4,7,5,5,7
3932.4,6,3,2,4
3932.4,3,2,1,2
3932.4,3,1,1,3
3932.4,2,1,1,3
3932.4,2,0,0,1
3932.4,1,-1,-1,2
3932.4,0,-4,-3,3
3932.4,2,-3,-2,6
3932.41,6,-1,-1,5
3932.41,7,0,0,7
3932.41,10,3,0,6
3932.41,9,4,1,5
3932.41,9,7,5,5
3932.41,7,8,6,4
3932.41,5,7,6,2
3932.41,2,4,3,0
3932.41,1,4,2,-1
3932.41,0,4,2,-3
3932.41,0,5,3,-4
3932.41,0,6,4,-4
3932.41,0,8,5,-3
3932.41,0,8,4,-3
3932.41,-1,6,3,-3
3932.41,-1,5,3,-3
3932.41,-1,3,3,0
3932.41,0,4,4,2
3932.42,1,4,4,3
3932.42,2,2,3,2
3932.42,1,1,0,1
3932.42,2,1,1,2
3932.42,4,2,1,4
3932.42,6,4,2,4
3932.42,5,4,2,4
3932.42,6,4,3,4
3932.42,5,5,5,7
3932.42,6,4,6,6
3932.42,4,3,4,5
3932.42,3,0,1,2
3932.42,0,-2,-3,0
3932.42,0,-1,0,2
3932.42,1,-2,-1,3
3932.42,2,-4,-3,5
3932.42,5,-1,0,7
3932.43,7,1,2,8
3932.43,7,0,1,8
3932.43,9,2,0,5
3932.43,8,4,2,5
3932.43,8,5,3,3
3932.43,7,6,2,2
3932.43,5,5,2,1
3932.43,4,5,2,0
3932.43,3,7,4,0
3932.43,3,8,5,-1
3932.43,1,9,6,-2
3932.43,0,8,5,-3
3932.43,-1,7,4,-5
3932.43,-3,4,2,-6
3932.43,-4,4,3,-4
3932.43,-2,5,3,-3
3932.43,-2,2,1,-1
3932.43,-1,2,1,0
3932.44,0,2,2,0
3932.44,2,4,2,2
3932.44,2,3,3,4
3932.44,3,3,5,6
3932.44,5,4,5,6
3932.44,5,4,4,6
3932.44,4,3,4,5
3932.44,4,3,4,5
3932.44,4,2,1,2
3932.44,3,1,0,1
3932.44,4,2,0,2
3932.44,3,2,1,2
3932.44,3,3,3,4
3932.44,4,2,3,5
3932.44,2,0,2,6
3932.44,2,-3,0,7
3932.44,2,-4,0,7
3932.45,3,-4,0,7
3932.45,4,-4,-1,6
3932.45,6,-1,-3,2
3932.45,7,1,-5,0
3932.45,8,6,-1,0
3932.45,7,8,1,0
3932.45,7,10,5,3
3932.45,8,13,8,3
3932.45,7,12,8,0
3932.45,3,10,6,-3
3932.45,-2,5,1,-6
3932.45,-5,0,-1,-5
3932.45,-1,5,4,-1
3932.45,1,8,9,1
3932.45,0,6,7,0
3932.45,-1,1,2,-3
3932.45,-4,-1,0,-2
3932.45,-2,0,1,0
3932.46,0,0,1,0
3932.46,0,0,-1,0
3932.46,2,3,2,3
3932.46,7,6,4,5
3932.46,7,5,2,4
3932.46,7,5,2,5
3932.46,8,7,6,7
3932.46,8,7,7,9
3932.46,8,5,7,8
3932.46,6,6,9,7
3932.46,1,0,1,2
3932.46,-2,-5,-5,-3
3932.46,-1,-2,-4,-3
3932.46,0,-2,-5,-1
3932.46,0,-4,-5,1
3932.46,3,-2,0,6
3932.46,6,0,2,11
3932.47,10,2,3,12
3932.47,11,5,7,12
3932.47,9,4,5,7
3932.47,5,1,1,2
3932.47,4,4,2,1
3932.47,3,4,3,0
3932.47,2,5,2,0
3932.47,2,5,2,-2
3932.47,0,5,1,-4
3932.47,0,7,4,-2
3932.47,1,7,3,-3
3932.47,0,8,4,-3
3932.47,1,9,6,-2
3932.47,1,10,8,-2
3932.47,0,7,4,-2
3932.47,-1,3,2,-2
3932.47,-3,-1,-2,-2
3932.48,-1,-1,-1,0
3932.48,1,2,2,3
3932.48,4,5,6,6
3932.48,6,5,6,7
3932.48,5,5,6,7
3932.48,3,1,1,3
3932.48,2,-1,-1,1
3932.48,1,0,-1,2
3932.48,3,2,2,4
3932.48,5,5,5,6
3932.48,6,4,6,7
3932.48,6,4,3,4
3932.48,4,3,2,3
3932.48,4,2,0,1
3932.48,2,-1,-3,1
3932.48,1,-5,-5,2
3932.48,3,-2,-2,7
3932.48,8,1,1,8
3932.49,9,1,-1,6
3932.49,9,2,0,5
3932.49,7,4,2,5
3932.49,8,6,4,5
3932.49,7,5,3,3
3932.49,5,5,1,0
3932.49,2,3,0,-2
3932.49,2,5,0,-3
3932.49,2,8,3,-2
3932.49,3,11,6,-1
3932.49,2,9,3,-5
3932.49,0,8,4,-4
3932.49,-1,9,9,0
3932.49,-1,7,8,0
3932.49,-1,5,8,0
3932.49,-3,2,6,1
3932.49,-3,0,5,2
3932.5,-2,-2,2,0
3932.5,-2,-3,0,0
3932.5,-1,-2,-1,0
3932.5,1,0,0,2
3932.5,3,3,2,4
3932.5,4,5,7,7
3932.5,6,4,4,6
3932.5,5,3,2,4
3932.5,5,3,2,4
3932.5,5,4,2,4
3932.5,5,4,3,5
3932.5,3,2,3,4
3932.5,2,1,2,3
3932.5,2,0,0,2
3932.5,1,-3,-3,1
3932.5,0,-5,-7,0
3932.5,4,-2,-6,1
3932.5,8,0,-2,5
3932.51,10,3,1,8
3932.51,12,6,4,11
3932.51,13,8,6,9
3932.51,10,8,5,5
3932.51,7,8,5,3
3932.51,3,4,2,0
3932.51,1,3,0,-2
3932.51,0,4,1,-4
3932.51,0,5,2,-4
3932.51,-2,5,3,-3
3932.51,0,6,5,-2
3932.51,0,9,7,-2
3932.51,0,7,6,-2
3932.51,-1,5,3,-3
3932.51,-2,3,3,-2
3932.51,-2,0,1,0
3932.51,0,2,3,3
3932.52,2,3,2,2
3932.52,1,1,1,1
3932.52,2,2,2,3
3932.52,3,4,4,4
3932.52,4,4,4,5
3932.52,6,2,2,5
3932.52,5,3,3,6
3932.52,6,4,2,4
3932.52,5,2,2,4
3932.52,5,2,2,4
3932.52,4,2,2,3
3932.52,3,2,3,3
3932.52,2,1,0,0
3932.52,0,-1,0,0
3932.52,-2,-6,-5,1
3932.52,0,-6,-4,3
3932.52,4,-1,0,9
3932.52,8,1,0,8
3932.53,10,4,1,8
3932.53,11,6,3,8
3932.53,11,6,3,6
3932.53,9,8,5,5
3932.53,7,6,3,1
3932.53,4,4,1,0
3932.53,2,4,1,-1
3932.53,1,6,3,-2
3932.53,0,7,2,-4
3932.53,0,8,4,-4
3932.53,0,9,6,-2
3932.53,0,9,6,-3
3932.53,-2,6,5,-2
3932.53,-2,3,4,-2
3932.53,-3,1,2,-2
3932.53,-3,0,0,0
3932.53,-1,1,3,3
3932.54,1,2,3,3
3932.54,2,1,2,3
3932.54,4,2,2,4
3932.54,4,2,2,3
3932.54,4,2,1,3
3932.54,4,3,3,5
3932.54,7,7,5,6
3932.54,7,6,5,4
3932.54,5,3,0,1
3932.54,3,1,-1,0
3932.54,3,1,-1,1
3932.54,4,3,0,2
3932.54,4,2,0,2
3932.54,4,2,0,3
3932.54,3,-1,-1,5
3932.54,4,0,4,11
3932.54,5,-1,2,9
3932.55,3,-6,-3,6
3932.55,5,0,0,6
3932.55,6,2,1,5
3932.55,6,3,2,4
3932.55,5,5,2,2
3932.55,5,5,2,1
3932.55,4,5,2,1
3932.55,4,7,4,0
3932.55,3,8,4,-2
3932.55,1,8,5,-2
3932.55,0,10,10,0
3932.55,0,10,12,1
3932.55,-1,6,8,0
3932.55,-4,1,1,-6
3932.55,-8,-2,-1,-7
3932.55,-8,-3,-1,-4
3932.55,-4,0,1,0
3932.55,0,1,3,3
3932.56,2,3,4,3
3932.56,4,4,3,5
3932.56,6,6,5,7
3932.56,7,6,4,5
3932.56,6,4,2,3
3932.56,5,3,0,1
3932.56,4,2,0,1
3932.56,5,4,1,2
3932.56,5,4,0,2
3932.56,5,3,0,1
3932.56,5,3,0,2
3932.56,6,3,0,3
3932.56,5,4,2,4
3932.56,4,0,1,5
3932.56,3,-1,1,7
3932.56,6,0,0,7
3932.56,6,0,-1,5
3932.57,4,-2,-2,4
3932.57,4,0,1,5
3932.57,4,0,1,5
3932.57,5,2,4,6
3932.57,4,3,4,4
3932.57,4,3,2,2
3932.57,4,5,3,0
3932.57,3,7,1,-2
3932.57,1,7,3,-3
3932.57,2,11,7,0
3932.57,2,11,8,-1
3932.57,0,8,6,-4
3932.57,-2,5,3,-4
3932.57,-2,5,3,-4
3932.57,-2,4,2,-2
3932.57,-2,2,1,-1
3932.57,0,1,0,0
3932.57,0,2,2,2
3932.58,2,3,1,2
3932.58,2,2,0,3
3932.58,3,3,3,5
3932.58,6,6,6,7
3932.58,6,4,5,6
3932.58,5,2,1,4
3932.58,5,1,0,2
3932.58,5,3,1,1
3932.58,3,4,2,2
3932.58,4,4,3,2
3932.58,4,3,2,2
3932.58,4,2,1,2
3932.58,2,0,0,2
3932.58,-1,-7,-6,2
3932.58,0,-8,-7,4
3932.58,5,-3,-2,6
3932.58,7,0,0,8
3932.59,7,0,2,10
3932.59,9,4,6,11
3932.59,11,8,8,11
3932.59,11,10,8,6
3932.59,7,6,5,2
3932.59,3,5,2,0
3932.59,0,3,1,-2
3932.59,0,5,2,-2
3932.59,0,4,2,-4
3932.59,-1,6,2,-4
3932.59,-2,5,3,-4
3932.59,0,8,6,-3
3932.59,-1,7,7,-1
3932.59,-2,4,5,-1
3932.59,-2,1,0,-3
3932.59,-2,0,-1,-3
3932.59,0,2,0,0
3932.59,1,3,2,2
3932.6,3,4,2,4
3932.6,5,5,4,5
3932.6,7,6,5,5
3932.6,6,5,6,7
3932.6,5,1,1,3
3932.6,3,0,-2,1
3932.6,5,4,1,3
3932.6,6,4,1,2
3932.6,5,3,0,2
3932.6,4,3,0,1
3932.6,4,4,3,5
3932.6,6,5,5,6
3932.6,6,5,4,5
3932.6,1,-2,0,3
3932.6,0,-4,0,6
3932.6,3,-3,0,6
3932.6,3,-4,-2,5
3932.61,5,-1,-1,5
3932.61,6,0,-1,4
3932.61,6,1,0,3
3932.61,6,4,0,2
3932.61,6,5,0,0
3932.61,4,4,0,0
3932.61,4,8,3,0
3932.61,4,10,6,0
3932.61,3,12,8,0
3932.61,2,11,8,0
3932.61,0,7,5,-3
3932.61,-4,6,10,0
3932.61,-4,4,8,0
3932.61,-4,0,1,-5
3932.61,-5,0,-1,-4
3932.61,-2,0,0,0
3932.61,0,1,0,0
3932.61,2,2,2,3
3932.62,4,6,8,7
3932.62,7,7,8,8
3932.62,5,4,4,4
3932.62,3,1,1,2
3932.62,2,0,1,2
3932.62,1,0,0,2
3932.62,2,1,2,4
3932.62,5,2,0,3
3932.62,4,0,-2,1
3932.62,4,2,0,2
3932.62,5,4,4,6
3932.62,6,4,3,5
3932.62,5,1,1,5
3932.62,4,-1,0,5
3932.62,5,-3,-5,2
3932.62,4,-2,-3,4
3932.62,5,-1,-1,6
3932.63,8,5,5,11
3932.63,10,7,7,10
3932.63,8,3,0,1
3932.63,3,1,-2,-3
3932.63,2,3,0,-1
3932.63,3,5,3,2
3932.63,5,9,7,2
3932.63,5,10,7,0
3932.63,3,10,6,-2
3932.63,0,6,3,-5
3932.63,-3,5,1,-5
3932.63,-3,4,2,-5
3932.63,-2,4,3,-3
3932.63,-2,5,4,-2
3932.63,-1,4,4,0
3932.63,1,4,3,1
3932.63,1,2,3,1
3932.64,1,2,3,4
3932.64,3,3,4,4
3932.64,4,3,3,3
3932.64,3,2,3,4
3932.64,4,2,2,3
3932.64,4,3,2,3
3932.64,4,2,1,3
3932.64,4,1,1,3
3932.64,4,2,1,3
3932.64,5,3,1,3
3932.64,5,3,1,3
3932.64,5,2,2,3
3932.64,4,1,0,2
3932.64,3,-1,-1,4
3932.64,3,-2,-1,5
3932.64,5,-1,0,7
3932.64,8,1,0,7
3932.65,7,0,1,7
3932.65,7,3,3,7
3932.65,6,3,2,5
3932.65,6,4,4,4
3932.65,3,3,2,1
3932.65,2,3,3,1
3932.65,1,5,4,1
3932.65,1,7,5,-1
3932.65,0,7,5,-2
3932.65,0,5,3,-3
3932.65,0,7,4,-4
3932.65,0,7,2,-6
3932.65,-4,3,0,-7
3932.65,-2,3,0,-4
3932.65,0,6,4,0
3932.65,1,6,5,3
3932.65,2,4,5,3
3932.65,3,5,5,4
3932.66,3,4,4,4
3932.66,4,4,3,3
3932.66,3,2,2,2
3932.66,2,1,1,3
3932.66,3,1,1,3
3932.66,3,2,2,4
3932.66,4,2,0,2
3932.66,3,2,2,4
3932.66,4,2,2,4
3932.66,5,2,1,3
3932.66,3,2,2,3
3932.66,3,2,3,4
3932.66,2,1,1,3
3932.66,0,-5,-4,2
3932.66,3,-5,-6,3
3932.66,6,0,-2,6
3932.66,8,2,2,9
3932.67,11,4,3,9
3932.67,10,4,2,6
3932.67,8,4,2,5
3932.67,8,6,5,4
3932.67,5,4,2,1
3932.67,3,3,1,0
3932.67,2,5,3,0
3932.67,3,8,5,-1
3932.67,0,7,4,-3
3932.67,-1,6,3,-5
3932.67,-3,5,3,-5
3932.67,-2,7,3,-4
3932.67,-1,6,3,-3
3932.67,-1,5,4,-3
3932.67,-2,4,4,0
3932.67,-1,2,4,2
3932.67,1,3,5,4
3932.67,2,3,4,3
3932.68,1,2,4,3
3932.68,1,1,1,2
3932.68,2,0,0,2
3932.68,3,2,2,3
3932.68,4,1,0,3
3932.68,6,2,-1,0
3932.68,6,4,0,3
3932.68,7,4,1,3
3932.68,6,3,-2,1
3932.68,7,5,0,2
3932.68,8,6,2,3
3932.68,7,5,3,4
3932.68,5,3,3,6
3932.68,4,0,3,8
3932.68,4,-2,1,8
3932.68,4,0,4,10
3932.68,4,-1,4,10
3932.69,3,-2,1,5
3932.69,2,-3,-2,2
3932.69,2,-1,-2,0
3932.69,2,2,0,0
3932.69,2,3,3,1
3932.69,2,5,6,3
3932.69,5,9,7,1
3932.69,3,8,4,-2
3932.69,1,8,3,-5
3932.69,0,6,0,-6
3932.69,-1,7,3,-5
3932.69,0,9,5,-2
3932.69,1,12,11,1
3932.69,1,11,13,3
3932.69,-2,1,3,0
3932.69,-4,-3,-1,-3
3932.69,-3,-1,0,0
3932.7,0,0,0,1
3932.7,1,1,0,0
3932.7,1,1,1,3
3932.7,4,3,1,5
3932.7,7,4,1,4
3932.7,7,5,2,4
3932.7,7,6,2,5
3932.7,6,5,4,5
3932.7,7,6,3,5
3932.7,6,5,2,4
3932.7,4,3,2,2
3932.7,2,0,0,1
3932.7,2,0,0,2
3932.7,2,-2,-1,3
3932.7,2,-4,-3,4
3932.7,4,-2,-3,5
3932.7,6,0,0,6
3932.7,7,1,0,8
3932.71,10,5,4,8
3932.71,9,5,4,7
3932.71,7,4,2,3
3932.71,3,3,2,2
3932.71,3,4,5,3
3932.71,3,4,3,1
3932.71,2,6,3,0
3932.71,0,5,2,-3
3932.71,-1,5,1,-5
3932.71,-1,7,3,-4
3932.71,0,9,6,-3
3932.71,0,7,6,-2
3932.71,-1,6,5,-1
3932.71,-1,5,4,0
3932.71,-3,1,3,0
3932.71,0,2,3,1
3932.71,0,3,5,3
3932.72,1,2,4,3
3932.72,1,0,0,0
3932.72,1,0,-2,0
3932.72,3,0,0,2
3932.72,6,2,1,5
3932.72,8,5,2,4
3932.72,8,6,4,5
3932.72,7,6,4,5
3932.72,6,5,4,5
3932.72,5,3,1,2
3932.72,4,2,1,2
3932.72,3,2,2,2
3932.72,2,0,2,4
3932.72,1,-4,0,5
3932.72,2,-3,0,6
3932.72,3,-2,-1,6
3932.72,5,-1,0,7
3932.72,5,0,-1,7
3932.73,7,0,0,4
3932.73,7,1,-2,1
3932.73,7,5,0,1
3932.73,7,7,3,3
3932.73,6,8,5,3
3932.73,6,8,3,0
3932.73,3,7,1,-5
3932.73,0,7,3,-4
3932.73,0,9,7,-1
3932.73,0,9,8,-1
3932.73,0,7,7,-2
3932.73,-2,4,4,-4
3932.73,-4,2,3,-3
3932.73,-2,3,4,0
3932.73,0,3,5,3
3932.73,2,3,4,3
3932.73,2,3,3,3
3932.74,2,3,2,3
3932.74,3,2,0,1
3932.74,2,2,1,3
3932.74,4,3,2,3
3932.74,4,2,2,3
3932.74,3,2,3,5
3932.74,4,1,1,4
3932.74,4,1,1,3
3932.74,3,1,0,3
3932.74,4,1,0,2
3932.74,3,2,0,2
3932.74,4,2,1,3
3932.74,3,1,1,4
3932.74,3,-2,-1,6
3932.74,5,0,0,7
3932.74,7,0,0,7
3932.74,7,0,0,6
3932.74,7,1,0,5
3932.75,6,2,2,6
3932.75,6,3,3,6
3932.75,5,4,3,3
3932.75,3,4,2,1
3932.75,2,3,2,1
3932.75,3,5,3,0
3932.75,3,7,4,-1
3932.75,2,9,5,-3
3932.75,0,9,6,-3
3932.75,0,10,5,-4
3932.75,-1,7,4,-5
3932.75,-1,6,2,-5
3932.75,-2,5,3,-4
3932.75,-2,2,1,-2
3932.75,-1,1,2,1
3932.75,1,1,3,4
3932.75,3,2,2,4
3932.76,3,4,5,6
3932.76,4,2,2,3
3932.76,2,2,1,2
3932.76,3,2,2,3
3932.76,3,2,3,4
3932.76,3,2,2,3
3932.76,3,2,3,4
3932.76,3,2,3,5
3932.76,4,2,3,4
3932.76,4,3,3,4
3932.76,3,2,3,5
3932.76,4,2,1,3
3932.76,2,-2,-2,2
3932.76,2,-4,-4,2
3932.76,3,-4,-4,4
3932.76,7,0,-1,7
3932.76,8,1,1,9
3932.77,10,4,3,9
3932.77,9,5,3,8
3932.77,8,5,4,6
3932.77,7,5,3,1
3932.77,3,3,1,0
3932.77,2,3,1,-1
3932.77,3,8,4,-1
3932.77,2,10,5,-3
3932.77,0,9,3,-5
3932.77,-2,6,2,-6
3932.77,-3,5,3,-5
3932.77,-1,6,5,-3
3932.77,-2,5,4,0
3932.77,-1,6,8,2
3932.77,0,3,5,2
3932.77,0,1,3,2
3932.77,0,0,1,0
3932.77,0,0,0,0
3932.78,0,0,0,1
3932.78,4,3,1,3
3932.78,5,4,2,5
3932.78,6,4,3,4
3932.78,6,5,4,4
3932.78,6,5,6,6
3932.78,5,4,4,5
3932.78,5,3,4,3
3932.78,3,0,0,0
3932.78,2,0,-1,0
3932.78,2,0,-1,0
3932.78,2,0,-2,1
3932.78,0,-5,-5,2
3932.78,3,-3,-1,7
3932.78,8,0,2,11
3932.78,10,1,2,9
3932.78,10,4,5,11
3932.79,10,8,11,12
3932.79,9,6,8,7
3932.79,3,2,3,1
3932.79,0,0,0,-1
3932.79,-2,-3,-3,-3
3932.79,0,1,0,0
3932.79,2,4,0,-3
3932.79,1,3,-3,-8
3932.79,1,7,-1,-5
3932.79,5,13,6,0
3932.79,7,15,10,0
3932.79,3,11,8,-1
3932.79,2,9,6,-1
3932.79,0,6,4,-1
3932.79,-2,0,0,-2
3932.79,-1,0,-1,-1
3932.79,1,2,0,0
3932.79,3,5,4,4
3932.8,5,5,5,4
3932.8,4,5,5,6
3932.8,3,3,5,6
3932.8,3,1,2,4
3932.8,1,0,0,1
3932.8,1,1,0,2
3932.8,3,3,3,4
3932.8,4,2,4,5
3932.8,2,2,3,5
3932.8,2,0,2,4
3932.8,3,0,0,3
3932.8,3,0,0,2
3932.8,0,-4,-3,2
3932.8,2,-4,-4,3
3932.8,5,-2,-3,5
3932.8,8,0,-2,6
3932.8,10,5,2,7
3932.81,9,4,2,7
3932.81,8,4,3,7
3932.81,8,6,4,5
3932.81,7,7,5,3
3932.81,4,4,1,0
3932.81,1,4,0,-3
3932.81,-1,3,0,-5
3932.81,0,8,5,-1
3932.81,2,11,8,-1
3932.81,2,11,7,-3
3932.81,0,8,5,-3
3932.81,-1,6,4,-2
3932.81,-1,6,7,0
3932.81,-2,3,5,0
3932.81,-3,0,1,0
3932.81,-2,0,1,0
3932.81,0,0,2,2
3932.81,1,2,3,3
3932.82,2,2,2,3
3932.82,3,2,3,4
3932.82,4,3,3,4
3932.82,4,2,2,4
3932.82,4,0,0,1
3932.82,4,1,-1,1
3932.82,4,3,1,3
3932.82,7,5,3,5
3932.82,8,6,1,3
3932.82,7,5,3,4
3932.82,6,4,2,5
3932.82,4,1,2,6
3932.82,3,0,3,8
3932.82,4,-3,0,6
3932.82,3,-4,-4,2
3932.82,2,-3,-3,4
3932.82,4,0,0,5
3932.83,6,3,5,7
3932.83,7,5,6,5
3932.83,3,3,3,2
3932.83,0,0,1,0
3932.83,-1,-1,-1,-1
3932.83,0,1,0,-1
3932.83,3,8,3,0
3932.83,7,14,8,1
3932.83,6,14,8,0
3932.83,3,13,8,-2
3932.83,0,9,5,-3
3932.83,-2,5,2,-4
3932.83,-3,3,2,-3
3932.83,-2,1,1,-1
3932.83,-1,0,1,0
3932.83,0,1,1,0
3932.83,1,2,3,3
3932.84,2,3,5,5
3932.84,4,4,5,5
3932.84,4,2,3,3
3932.84,2,0,0,1
3932.84,2,0,-1,0
3932.84,4,1,0,1
3932.84,5,4,0,1
3932.84,7,7,2,3
3932.84,8,7,2,3
3932.84,7,6,3,3
3932.84,6,4,3,5
3932.84,6,3,2,4
3932.84,3,-1,-2,1
3932.84,1,-3,-3,4
3932.84,4,-2,-1,6
3932.84,5,-1,1,9
3932.84,6,-1,0,7
3932.84,7,2,4,8
3932.85,7,3,6,8
3932.85,6,4,5,5
3932.85,2,3,3,2
3932.85,1,1,1,0
3932.85,0,2,1,-1
3932.85,1,4,1,-3
3932.85,1,6,3,-3
3932.85,0,9,6,-2
3932.85,0,7,5,-3
3932.85,0,8,6,-2
3932.85,0,7,5,-2
3932.85,-1,5,3,-3
3932.85,-2,4,3,-1
3932.85,0,3,2,0
3932.85,1,3,3,2
3932.85,3,5,4,3
3932.85,3,3,2,2
3932.86,2,2,2,2
3932.86,3,3,3,3
3932.86,4,4,3,5
3932.86,4,3,1,2
3932.86,3,2,1,3
3932.86,3,1,1,3
3932.86,4,2,1,3
3932.86,4,0,0,3
3932.86,5,3,2,4
3932.86,6,4,3,3
3932.86,4,3,2,3
3932.86,3,1,1,3
3932.86,2,-3,-2,4
3932.86,3,-3,-2,4
3932.86,5,-1,-1,5
3932.86,5,-1,0,6
3932.86,7,1,0,7
3932.86,8,3,2,6
3932.87,7,5,2,4
3932.87,7,6,3,4
3932.87,5,4,1,1
3932.87,4,6,5,3
3932.87,5,8,9,4
3932.87,4,10,9,0
3932.87,0,8,6,-3
3932.87,-3,6,5,-5
3932.87,-4,3,2,-6
3932.87,-6,2,3,-5
3932.87,-6,0,1,-5
3932.87,-4,1,1,-3
3932.87,-3,0,1,-1
3932.87,-1,0,0,-1
3932.87,2,2,1,1
3932.87,5,6,2,2
3932.87,6,5,1,2
3932.88,6,6,1,2
3932.88,8,6,1,2
3932.88,7,5,2,4
3932.88,8,6,5,7
3932.88,8,7,7,8
3932.88,8,6,6,7
3932.88,7,4,3,3
3932.88,3,0,-1,0
3932.88,1,0,-2,-1
3932.88,1,0,-2,0
3932.88,3,2,0,3
3932.88,4,3,3,5
3932.88,3,-2,0,6
3932.88,3,-2,1,8
3932.88,4,0,5,11
3932.88,4,-4,0,7
3932.88,4,-2,-1,4
3932.89,4,0,0,4
3932.89,6,2,1,2
3932.89,4,4,2,2
3932.89,4,5,2,0
3932.89,3,6,4,2
3932.89,4,8,5,-1
3932.89,2,7,4,-2
3932.89,0,8,5,-2
3932.89,-1,7,4,-3
3932.89,0,8,5,-3
3932.89,0,8,5,-4
3932.89,-3,2,1,-5
3932.89,-3,2,1,-4
3932.89,-3,0,0,-3
3932.89,-1,1,2,1
3932.89,1,4,5,4
3932.89,4,6,6,6
3932.89,6,6,7,7
3932.9,7,7,5,6
3932.9,6,5,5,5
3932.9,4,3,1,2
3932.9,2,0,0,0
3932.9,2,0,-1,0
3932.9,2,1,1,3
3932.9,4,3,3,5
3932.9,4,1,0,3
3932.9,4,1,0,2
3932.9,3,1,1,3
3932.9,4,2,1,4
3932.9,4,0,0,5
3932.9,5,0,1,7
3932.9,4,-2,-1,5
3932.9,5,-2,-3,4
3932.9,5,0,0,7
3932.9,8,3,2,8
3932.91,8,2,1,5
3932.91,7,5,3,4
3932.91,5,5,4,2
3932.91,4,5,3,1
3932.91,4,6,3,0
3932.91,2,8,5,0
3932.91,1,8,6,-1
3932.91,0,8,5,-2
3932.91,-1,7,5,-4
3932.91,-1,7,4,-4
3932.91,-3,4,2,-5
3932.91,-4,2,0,-6
3932.91,-3,2,0,-4
3932.91,-2,2,1,0
3932.91,1,3,3,2
3932.91,2,3,3,3
3932.91,4,3,0,1
3932.91,5,6,5,6
3932.92,8,8,9,9
3932.92,7,4,5,5
3932.92,3,1,2,4
3932.92,2,1,2,3
3932.92,2,1,1,3
3932.92,3,0,0,1
3932.92,2,0,0,3
3932.92,3,2,1,3
3932.92,4,3,2,4
3932.92,4,3,2,3
3932.92,3,0,-1,1
3932.92,0,-3,-3,2
3932.92,2,-3,-1,5
3932.92,6,-1,0,8
3932.92,7,0,0,7
3932.92,9,0,0,8
3932.92,9,3,2,7
3932.93,7,4,3,6
3932.93,8,6,4,5
3932.93,6,6,4,2
3932.93,2,4,1,-1
3932.93,0,3,1,-1
3932.93,0,6,4,-1
3932.93,2,8,5,-2
3932.93,0,8,4,-4
3932.93,-1,6,3,-4
3932.93,-1,7,5,-3
3932.93,-1,6,4,-3
3932.93,-1,6,4,-2
3932.93,-2,4,3,-1
3932.93,-1,1,1,0
3932.93,0,2,2,1
3932.93,1,4,4,3
3932.93,2,3,4,4
3932.94,3,2,3,3
3932.94,3,1,1,3
3932.94,4,2,3,4
3932.94,5,4,4,5
3932.94,6,5,5,5
3932.94,5,3,3,4
3932.94,3,1,0,1
3932.94,2,0,0,1
3932.94,3,0,0,2
3932.94,3,1,0,3
3932.94,5,3,1,3
3932.94,4,1,1,4
3932.94,2,-2,-1,5
3932.94,4,-2,-1,6
3932.94,6,0,0,8
3932.94,7,0,0,8
3932.94,9,2,2,8
3932.94,8,3,2,6
3932.95,7,3,1,3
3932.95,5,4,1,1
3932.95,3,4,3,2
3932.95,3,4,3,1
3932.95,3,6,3,0
3932.95,2,6,1,-3
3932.95,0,7,4,-3
3932.95,0,8,5,-2
3932.95,0,8,6,-3
3932.95,-1,6,5,-3
3932.95,-1,6,4,-3
3932.95,-1,5,4,-3
3932.95,-3,1,1,-1
3932.95,-1,1,2,1
3932.95,1,3,3,1
3932.95,2,3,3,3
3932.95,2,2,3,3
3932.96,3,3,3,4
3932.96,4,3,4,5
3932.96,5,3,3,5
3932.96,5,2,2,3
3932.96,3,1,1,3
3932.96,3,1,0,2
3932.96,3,2,1,3
3932.96,4,2,1,2
3932.96,3,1,1,3
3932.96,5,2,1,3
3932.96,4,2,0,2
3932.96,3,0,-1,3
3932.96,3,-2,-2,4
3932.96,6,0,0,7
3932.96,6,0,1,7
3932.96,6,-2,0,7
3932.96,7,1,2,9
3932.96,9,4,4,7
3932.97,7,5,4,5
3932.97,5,5,4,3
3932.97,1,4,4,1
3932.97,1,3,2,0
3932.97,1,5,4,-1
3932.97,1,8,5,-1
3932.97,0,7,3,-4
3932.97,0,6,3,-5
3932.97,-1,7,3,-6
3932.97,-1,6,3,-5
3932.97,-2,5,3,-4
3932.97,-2,4,2,-3
3932.97,-1,3,2,0
3932.97,1,5,6,4
3932.97,4,5,6,5
3932.97,3,2,2,3
3932.97,2,0,0,2
3932.98,3,0,0,4
3932.98,6,4,2,4
3932.98,6,3,1,2
3932.98,4,1,-1,1
3932.98,4,3,1,4
3932.98,8,6,3,5
3932.98,6,5,3,5
3932.98,5,5,3,5
3932.98,6,5,4,5
3932.98,5,4,4,5
3932.98,4,2,3,4
3932.98,0,-2,1,3
3932.98,-1,-7,-3,3
3932.98,0,-6,0,6
3932.98,2,-3,2,8
3932.98,3,-1,5,11
3932.98,5,0,1,5
3932.98,2,-3,-5,0
3932.99,3,0,-4,0
3932.99,4,3,-1,0
3932.99,5,5,1,1
3932.99,5,7,3,1
3932.99,7,12,8,4
3932.99,10,16,10,2
3932.99,7,14,9,0
3932.99,1,9,4,-5
3932.99,-2,6,3,-5
3932.99,-3,4,2,-4
3932.99,-3,4,2,-3
3932.99,-2,3,3,-2
3932.99,-1,2,3,0
3932.99,0,2,2,0
3932.99,1,3,3,2
3932.99,2,2,2,2
3932.99,2,1,2,3
3933,3,1,2,3
3933,3,1,2,4
3933,5,3,2,5
3933,6,4,3,5
3933,5,2,1,4
3933,4,2,0,2
3933,4,2,0,1
3933,4,2,0,2
3933,4,3,2,3
3933,4,3,2,3
3933,3,1,0,2
3933,0,-4,-1,4
3933,1,-3,0,7
3933,6,0,3,8
3933,7,0,1,9
3933,8,2,2,8
3933,9,4,3,7
3933.01,8,4,2,4
3933.01,5,3,1,2
3933.01,3,4,0,0
3933.01,2,4,1,0
3933.01,4,8,5,0
3933.01,2,8,6,0
3933.01,1,8,6,-3
3933.01,-1,5,3,-4
3933.01,-2,5,2,-6
3933.01,-3,5,2,-4
3933.01,-2,3,0,-6
3933.01,-2,4,0,-4
3933.01,0,5,2,0
3933.01,2,7,8,6
3933.01,4,6,7,5
3933.01,2,2,3,2
3933.01,1,1,2,3
3933.01,2,3,3,4
3933.02,3,2,0,2
3933.02,3,1,0,1
3933.02,4,3,2,4
3933.02,5,4,4,4
3933.02,5,4,3,4
3933.02,4,3,2,4
3933.02,4,2,0,2
3933.02,4,2,2,4
3933.02,4,2,1,3
3933.02,4,2,1,3
3933.02,2,0,0,4
3933.02,2,-4,-1,5
3933.02,4,-2,0,6
3933.02,5,-1,1,8
3933.02,6,-1,1,8
3933.02,6,0,0,5
3933.02,6,0,-1,4
3933.03,7,5,3,4
3933.03,7,6,4,3
3933.03,5,8,7,3
3933.03,4,8,4,0
3933.03,1,5,2,-3
3933.03,-1,4,1,-4
3933.03,0,7,4,-3
3933.03,0,8,4,-3
3933.03,0,9,5,-2
3933.03,1,10,6,-1
3933.03,0,7,4,-3
3933.03,-1,5,2,-4
3933.03,-4,0,0,-3
3933.03,-1,1,3,1
3933.03,1,2,3,2
3933.03,2,3,2,2
3933.03,4,3,2,3
3933.03,3,1,1,2
3933.04,4,1,0,4
3933.04,6,3,1,5
3933.04,8,5,3,6
3933.04,7,5,3,4
3933.04,5,2,0,1
3933.04,2,0,0,0
3933.04,1,0,-1,1
3933.04,2,0,0,1
3933.04,3,3,3,5
3933.04,5,6,8,9
3933.04,6,2,5,9
3933.04,6,0,3,9
3933.04,5,0,4,9
3933.04,5,0,3,7
3933.04,1,-3,2,7
3933.04,2,-3,0,4
3933.04,3,0,-1,2
3933.05,3,0,-1,0
3933.05,2,0,-3,-2
3933.05,0,0,-3,-1
3933.05,3,4,0,1
3933.05,7,11,8,4
3933.05,8,15,10,2
3933.05,4,11,6,-2
3933.05,1,10,6,-2
3933.05,1,10,5,-3
3933.05,0,9,5,-4
3933.05,-3,5,2,-5
3933.05,-4,2,1,-4
3933.05,-5,0,2,-2
3933.05,-2,1,3,0
3933.05,0,1,1,1
3933.05,0,-1,-2,1
3933.05,1,-1,-1,3
3933.05,6,3,0,4
3933.06,9,7,4,7
3933.06,10,7,4,6
3933.06,8,5,3,6
3933.06,7,4,3,6
3933.06,7,4,4,5
3933.06,5,3,4,5
3933.06,3,3,5,5
3933.06,2,2,2,3
3933.06,1,0,0,2
3933.06,1,0,-1,0
3933.06,0,-4,-4,1
3933.06,2,-5,-6,1
3933.06,3,-2,-2,4
3933.06,5,-1,0,7
3933.06,8,2,1,7
3933.06,8,3,2,7
3933.06,8,5,3,5
3933.07,7,5,3,3
3933.07,6,6,3,3
3933.07,5,6,4,2
3933.07,4,7,5,0
3933.07,2,7,5,0
3933.07,1,8,5,-2
3933.07,0,8,5,-3
3933.07,-2,5,3,-4
3933.07,-3,5,3,-6
3933.07,-4,2,0,-5
3933.07,-3,2,0,-4
3933.07,-2,4,2,-1
3933.07,0,3,4,1
3933.07,2,4,4,2
3933.07,2,4,5,3
3933.07,4,6,6,5
3933.07,5,5,4,4
3933.08,4,3,2,1
3933.08,2,0,0,1
3933.08,0,0,1,4
3933.08,3,1,4,6
3933.08,7,6,8,10
3933.08,7,4,6,9
3933.08,6,1,0,3
3933.08,2,0,-1,1
3933.08,2,0,-2,0
3933.08,1,0,-2,0
3933.08,2,0,-1,2
3933.08,2,-4,-5,2
3933.08,4,-2,-3,5
3933.08,7,1,1,8
3933.08,8,2,3,10
3933.08,9,2,2,8
3933.08,9,4,3,7
3933.08,9,6,3,3
3933.09,7,6,2,0
3933.09,4,5,2,0
3933.09,5,8,4,1
3933.09,5,8,3,-2
3933.09,1,7,3,-2
3933.09,1,9,6,-1
3933.09,0,8,7,-2
3933.09,-2,6,4,-5
3933.09,-5,3,2,-5
3933.09,-5,1,1,-5
3933.09,-3,2,2,-2
3933.09,-2,1,2,0
3933.09,0,1,3,2
3933.09,2,1,3,4
3933.09,4,3,3,5
3933.09,5,3,2,4
3933.09,4,1,0,1
3933.1,3,3,1,2
3933.1,4,3,2,2
3933.1,4,1,-1,0
3933.1,4,1,-3,0
3933.1,3,0,-3,0
3933.1,5,4,4,5
3933.1,5,7,9,7
3933.1,4,3,5,3
3933.1,0,2,8,7
3933.1,3,6,16,14
3933.1,4,1,9,11
3933.1,1,-8,-4,4
3933.1,0,-12,-13,-1
3933.1,2,-7,-11,-1
3933.1,6,0,-5,4
3933.1,10,4,1,7
3933.1,11,7,5,10
3933.1,14,12,9,12
3933.11,14,12,7,6
3933.11,10,12,7,4
3933.11,6,10,9,4
3933.11,4,10,8,0
3933.11,0,7,4,-3
3933.11,-3,4,1,-8
3933.11,-7,0,-2,-11
3933.11,-8,0,-3,-11
3933.11,-7,1,-2,-9
3933.11,-3,5,1,-5
3933.11,0,6,1,-4
3933.11,0,3,0,-3
3933.11,0,4,1,0
3933.11,2,4,4,4
3933.11,5,6,7,6
3933.11,6,6,7,7
3933.11,5,3,6,6
3933.12,3,0,1,3
3933.12,0,-2,0,4
3933.12,4,2,5,9
3933.12,8,4,4,6
3933.12,5,1,0,4
3933.12,4,0,-1,2
3933.12,3,0,-1,2
3933.12,5,2,0,4
3933.12,7,4,1,4
3933.12,6,4,2,4
3933.12,2,0,-1,3
3933.12,1,-4,-2,5
3933.12,4,-1,0,7
3933.12,6,0,-1,4
3933.12,8,2,0,5
3933.12,10,8,6,7
3933.12,7,3,0,1
3933.12,4,3,0,0
3933.13,4,4,2,1
3933.13,3,3,2,1
3933.13,2,3,2,2
3933.13,4,6,5,0
3933.13,3,9,9,1
3933.13,3,15,18,8
3933.13,4,14,15,2
3933.13,0,11,10,-4
3933.13,-4,6,4,-8
3933.13,-8,0,-3,-14
3933.13,-13,-6,-7,-12
3933.13,-12,-6,-3,-3
3933.13,-4,-2,0,2
3933.13,2,1,2,6
3933.13,8,6,4,7
3933.13,10,8,5,6
3933.14,6,3,2,1
3933.14,0,0,0,2
3933.14,2,1,4,7
3933.14,7,3,2,6
3933.14,6,1,0,4
3933.14,5,1,0,3
3933.14,6,2,1,6
3933.14,8,6,4,6
3933.14,11,11,8,9
3933.14,12,13,10,7
3933.14,7,7,6,4
3933.14,2,-2,-1,2
3933.14,1,-2,-1,3
3933.14,2,-2,-1,2
3933.14,0,-6,-3,2
3933.14,1,-5,-3,3
3933.14,2,-4,-2,4
3933.14,4,-1,-1,4
3933.15,5,0,1,6
3933.15,5,0,-1,3
3933.15,5,1,-1,2
3933.15,8,9,3,1
3933.15,6,8,1,-2
3933.15,3,5,-1,-6
3933.15,0,4,-3,-8
3933.15,0,6,-3,-9
3933.15,0,6,-4,-12
3933.15,-5,2,0,-7
3933.15,-3,6,8,1
3933.15,0,10,16,9
3933.15,7,17,22,14
3933.15,12,24,26,10
3933.15,6,19,18,1
3933.15,-1,8,9,-1
3933.15,-4,1,4,-2
3933.16,-7,-2,4,1
3933.16,-5,-4,5,7
3933.16,-1,-5,0,3
3933.16,0,-5,-4,1
3933.16,0,-5,-6,0
3933.16,1,-4,-6,1
3933.16,6,0,-2,7
3933.16,13,6,1,9
3933.16,13,7,1,3
3933.16,6,4,0,2
3933.16,3,1,0,2
3933.16,4,1,-1,3
3933.16,6,0,-8,-1
3933.16,4,-1,-10,-3
3933.16,3,0,-4,3
3933.16,7,2,2,8
3933.16,7,3,6,10
3933.16,6,2,5,8
3933.17,4,4,9,10
3933.17,5,3,7,10
3933.17,8,6,2,0
3933.17,3,6,-2,-14
3933.17,-9,4,0,-12
3933.17,-6,8,9,0
3933.17,2,12,8,0
3933.17,1,8,4,-6
3933.17,-4,2,1,-5
3933.17,-3,6,9,6
3933.17,5,8,9,9
3933.17,6,1,1,7
3933.17,5,-5,-5,5
3933.17,2,-9,-7,1
3933.17,-2,-13,-9,0
3933.17,-3,-9,-4,2
3933.17,0,-1,1,5
3933.18,8,9,10,13
3933.18,17,19,17,17
3933.18,22,20,10,5
3933.18,8,10,3,-4
3933.18,-1,5,2,-4
3933.18,-2,6,5,0
3933.18,0,7,6,-3
3933.18,-3,5,6,-3
3933.18,-3,5,10,2
3933.18,-2,3,10,9
3933.18,0,-7,-2,7
3933.18,4,-8,-5,9
3933.18,8,-5,-4,11
3933.18,9,-4,-3,9
3933.18,6,-6,-3,8
3933.18,6,-4,-2,7
3933.18,6,-1,0,10
3933.18,12,3,0,5
3933.19,8,0,-4,-2
3933.19,-2,-4,-6,-3
3933.19,-1,-3,-5,-2
3933.19,1,3,-2,-4
3933.19,2,10,2,-5
3933.19,3,17,10,-1
3933.19,5,20,14,0
3933.19,5,21,17,2
3933.19,3,18,16,1
3933.19,4,18,14,-1
3933.19,0,12,6,-7
3933.19,-7,0,-4,-12
3933.19,-9,-3,-5,-8
3933.19,-5,-1,-2,-2
3933.19,0,1,2,8
3933.19,10,4,0,4
3933.19,6,1,0,6
3933.2,8,0,-1,11
3933.2,14,0,-3,8
3933.2,11,2,0,6
3933.2,8,2,1,4
3933.2,0,-4,-6,-5
3933.2,-9,-12,-9,-7
3933.2,-12,-14,-6,0
3933.2,-3,-4,0,2
3933.2,0,4,12,11
3933.2,5,6,14,16
3933.2,10,5,9,16
3933.2,16,6,3,6
3933.2,9,8,2,1
3933.2,5,11,10,7
3933.2,12,17,14,9
3933.2,10,11,8,5
3933.2,5,1,-1,-1
3933.2,-3,-8,-10,-7
3933.21,-6,-8,-7,-4
3933.21,-2,0,3,8
3933.21,10,11,10,7
3933.21,7,6,-1,-11
3933.21,-11,-4,-5,-12
3933.21,-11,0,1,-6
3933.21,-3,11,11,-2
3933.21,0,23,28,6
3933.21,1,21,19,-7
3933.21,-10,10,10,-11
3933.21,-10,8,10,2
3933.21,4,9,7,8
3933.21,12,10,6,13
3933.21,16,2,-8,1
3933.21,9,-6,-14,2
3933.21,14,-1,-11,7
3933.21,17,-4,-18,-5
3933.22,3,-6,-10,0
3933.22,4,6,14,19
3933.22,13,10,19,23
3933.22,13,5,7,8
3933.22,0,-6,-3,0
3933.22,-6,-12,-3,7
3933.22,2,-6,3,15
3933.22,3,-15,-12,2
3933.22,-1,-18,-18,-3
3933.22,-3,-16,-16,-4
3933.22,-4,-12,-10,0
3933.22,4,0,-2,1
3933.22,11,19,12,6
3933.22,15,24,10,-1
3933.22,8,14,-4,-14
3933.22,1,11,0,-8
3933.22,0,12,13,5
3933.23,0,1,10,14
3933.23,9,1,7,20
3933.23,17,7,6,12
3933.23,10,3,-1,-4
3933.23,-3,0,0,-2
3933.23,3,8,3,0
3933.23,9,14,4,1
3933.23,12,18,7,4
3933.23,13,15,3,-3
3933.23,3,6,-3,-12
3933.23,-4,8,7,-5
3933.23,-8,8,23,9
3933.23,-9,3,24,11
3933.23,-13,-2,20,4
3933.23,-23,-13,7,-4
3933.23,-23,-14,-1,-12
3933.23,-17,2,14,2
3933.23,-5,9,19,10
3933.24,0,2,6,5
3933.24,4,2,1,5
3933.24,11,9,1,2
3933.24,11,8,-5,-5
3933.24,4,1,-8,-8
3933.24,-2,0,-3,-2
3933.24,1,0,-6,-7
3933.24,2,5,0,7
3933.24,14,8,5,15
3933.24,17,1,0,17
3933.24,14,-5,-2,21
3933.24,20,0,5,30
3933.24,25,0,1,23
3933.24,18,-4,-5,12
3933.24,8,-9,-7,6
3933.24,3,-15,-25,-17
3933.24,-6,-12,-28,-28
3933.25,-12,-4,-14,-16
3933.25,1,9,-10,-19
3933.25,3,17,-6,-27
3933.25,-4,22,14,-1
3933.25,15,43,44,26
3933.25,25,39,35,12
3933.25,2,7,1,-15
3933.25,-18,-9,-8,-16
3933.25,-15,-6,-7,-13
3933.25,-11,5,14,4
3933.25,0,14,28,16
3933.25,1,8,23,15
3933.25,4,7,15,10
3933.25,7,15,22,14
3933.25,6,10,15,3
3933.25,-11,-12,-1,3
3933.25,-6,-19,-11,8
3933.25,6,-10,-8,11
3933.26,12,-7,-13,1
3933.26,4,-14,-23,-11
3933.26,-4,-18,-25,-7
3933.26,9,3,-5,7
3933.26,26,27,18,20
3933.26,29,28,21,15
3933.26,13,9,6,4
3933.26,0,-3,-5,-5
3933.26,-6,-7,-4,0
3933.26,-3,-6,-2,2
3933.26,-1,-8,-5,-1
3933.26,-5,-9,-5,4
3933.26,1,-7,-1,15
3933.26,15,0,-2,10
3933.26,13,1,0,10
3933.26,12,3,4,16
3933.26,17,9,7,14
3933.27,12,5,3,2
3933.27,2,1,-2,-12
3933.27,-10,7,9,-7
3933.27,-4,20,21,-2
3933.27,-4,18,17,-11
3933.27,-13,9,5,-23
3933.27,-21,4,5,-13
3933.27,-8,12,12,0
3933.27,7,21,16,5
3933.27,10,17,11,1
3933.27,6,12,7,2
3933.27,4,4,0,0
3933.27,1,-1,-8,-7
3933.27,-2,0,0,0
3933.27,-1,1,4,1
3933.27,-5,-5,-7,-14
3933.27,-20,-24,-31,-32
3933.27,-23,-20,-25,-20
3933.28,-5,0,0,10
3933.28,22,23,25,32
3933.28,31,29,37,44
3933.28,36,25,23,23
3933.28,21,17,15,15
3933.28,9,0,-4,-7
3933.28,-11,-13,-8,-4
3933.28,-10,-17,-10,0
3933.28,-4,-15,-8,7
3933.28,5,-8,-5,5
3933.28,5,0,4,11
3933.28,10,8,14,23
3933.28,18,7,10,20
3933.28,17,7,12,23
3933.28,15,2,4,11
3933.28,6,-3,-7,-6
3933.28,-6,-8,-12,-15
3933.29,-10,-5,-9,-13
3933.29,-6,1,2,2
3933.29,7,13,8,0
3933.29,-1,1,-3,-12
3933.29,-10,-6,-10,-11
3933.29,-3,1,0,0
3933.29,6,11,5,0
3933.29,5,14,9,-4
3933.29,-3,10,12,-3
3933.29,-7,9,15,0
3933.29,-5,10,16,3
3933.29,1,17,18,5
3933.29,4,15,12,0
3933.29,-1,0,-5,-8
3933.29,0,0,-12,-10
3933.29,7,8,-8,-8
3933.29,10,10,-9,-8
3933.3,11,10,-8,-5
3933.3,11,9,-4,-2
3933.3,10,12,5,4
3933.3,11,13,13,9
3933.3,6,7,18,27
3933.3,22,11,20,35
3933.3,26,8,16,30
3933.3,17,-11,-15,0
3933.3,-1,-16,-13,1
3933.3,-4,-21,-17,-2
3933.3,-10,-31,-31,-13
3933.3,-16,-34,-26,-3
3933.3,-4,-19,-10,14
3933.3,14,0,5,21
3933.3,16,4,10,13
3933.3,3,-2,4,5
3933.3,0,4,10,8
3933.3,6,11,14,7
3933.31,9,22,27,19
3933.31,15,21,19,5
3933.31,0,10,14,0
3933.31,-6,5,5,-15
3933.31,-19,-2,-4,-27
3933.31,-27,-6,-9,-30
3933.31,-25,-1,-3,-19
3933.31,-9,17,18,5
3933.31,18,39,31,16
3933.31,23,34,22,9
3933.31,13,15,6,7
3933.31,15,12,4,10
3933.31,15,8,0,6
3933.31,8,-5,-11,-2
3933.31,0,-12,-14,-3
3933.31,-2,-12,-13,0
3933.31,3,-7,-17,-8
3933.32,1,-3,-15,-12
3933.32,0,2,-4,-4
3933.32,1,3,2,0
3933.32,-2,2,10,6
3933.32,-1,3,13,9
3933.32,0,6,19,18
3933.32,6,6,13,11
3933.32,6,8,14,11
3933.32,6,7,12,12
3933.32,1,-9,-8,0
3933.32,-2,-16,-20,-6
3933.32,1,-8,-14,-1
3933.32,7,0,-4,6
3933.32,12,4,1,13
3933.32,19,13,12,20
3933.32,24,16,9,12
3933.32,14,10,4,2
3933.32,5,10,13,6
3933.33,1,10,16,6
3933.33,-4,-3,-5,-12
3933.33,-12,-6,-6,-9
3933.33,-2,5,1,-7
3933.33,-1,4,-8,-20
3933.33,-13,-6,-14,-23
3933.33,-16,0,5,-7
3933.33,-8,6,9,-8
3933.33,-7,15,18,1
3933.33,5,25,23,7
3933.33,7,17,13,1
3933.33,1,7,5,0
3933.33,5,13,14,9
3933.33,6,4,0,-4
3933.33,-3,-1,-5,-5
3933.33,2,5,4,6
3933.33,11,12,13,18
3933.34,17,12,15,20
3933.34,16,7,3,6
3933.34,7,2,-6,-9
3933.34,-3,-1,-9,-13
3933.34,-10,-8,-10,-7
3933.34,-6,-10,-9,-2
3933.34,-1,-5,-2,3
3933.34,0,-4,-2,3
3933.34,1,-6,-5,1
3933.34,-3,-16,-9,9
3933.34,9,-9,-2,24
3933.34,25,-1,-4,20
3933.34,22,-4,-7,18
3933.34,25,5,2,21
3933.34,23,5,3,17
3933.34,15,-2,-6,5
3933.34,8,-3,-8,0
3933.34,7,2,0,5
3933.35,5,0,3,6
3933.35,-1,-5,-1,-2
3933.35,-11,-10,-4,-10
3933.35,-13,0,7,-4
3933.35,0,27,35,17
3933.35,20,47,44,15
3933.35,17,47,40,4
3933.35,0,24,15,-15
3933.35,-14,6,-2,-27
3933.35,-24,-8,-13,-28
3933.35,-24,-10,-13,-21
3933.35,-18,-9,-15,-27
3933.35,-20,-4,-5,-15
3933.35,-8,7,9,4
3933.35,6,14,15,14
3933.35,14,15,18,22
3933.35,18,11,15,27
3933.36,21,4,7,22
3933.36,15,-4,-7,0
3933.36,-3,-14,-18,-16
3933.36,-16,-18,-19,-15
3933.36,-11,-11,-12,-7
3933.36,3,7,5,9
3933.36,21,25,18,14
3933.36,22,24,15,11
3933.36,10,0,-5,-1
3933.36,-8,-21,-14,0
3933.36,-7,-17,0,19
3933.36,6,-9,8,31
3933.36,14,-11,0,25
3933.36,15,-9,-7,9
3933.36,9,-6,-13,0
3933.36,9,3,-9,-6
3933.36,6,10,3,2
3933.37,11,16,13,12
3933.37,19,20,12,12
3933.37,19,17,0,-6
3933.37,8,24,17,0
3933.37,7,35,38,8
3933.37,-1,20,20,-8
3933.37,-10,16,13,-18
3933.37,-18,13,15,-14
3933.37,-19,0,0,-19
3933.37,-22,-13,-16,-24
3933.37,-22,-22,-24,-18
3933.37,-9,-8,-9,-1
3933.37,9,6,0,5
3933.37,14,7,1,11
3933.37,17,8,4,17
3933.37,18,2,-2,8
3933.37,9,-5,-8,6
3933.38,10,-5,-6,12
3933.38,15,-6,-15,0
3933.38,8,-7,-16,-4
3933.38,2,-3,-9,-7
3933.38,-4,0,2,2
3933.38,0,5,12,8
3933.38,2,9,17,13
3933.38,6,11,17,14
3933.38,8,8,11,14
3933.38,6,-10,-5,11
3933.38,2,-21,-11,16
3933.38,8,-16,-7,20
3933.38,11,-10,-2,16
3933.38,10,-2,8,23
3933.38,19,9,17,32
3933.38,29,12,8,18
3933.38,21,6,-9,-8
3933.38,0,-3,-15,-16
3933.39,-3,0,-9,-9
3933.39,8,21,6,-9
3933.39,-1,19,14,-14
3933.39,-14,15,11,-24
3933.39,-21,21,22,-16
3933.39,-11,33,36,-1
3933.39,-1,36,37,1
3933.39,-4,23,25,-4
3933.39,-15,1,4,-15
3933.39,-25,-17,-17,-25
3933.39,-26,-19,-15,-13
3933.39,-9,-4,0,4
3933.39,7,4,0,5
3933.39,10,2,-6,0
3933.39,5,-2,-9,-1
3933.39,4,-2,-4,4
3933.39,5,0,5,15
3933.4,12,0,3,14
3933.4,14,3,2,12
3933.4,16,7,0,3
3933.4,9,3,-2,4
3933.4,10,5,0,10
3933.4,16,10,4,13
3933.4,19,12,5,9
3933.4,12,4,-2,2
3933.4,0,-12,-13,-1
3933.4,-6,-28,-24,0
3933.4,0,-22,-17,8
3933.4,8,-9,-2,18
3933.4,13,0,13,31
3933.4,20,9,29,40
3933.4,17,-2,8,22
3933.4,11,-3,-1,9
3933.4,9,4,1,3
3933.4,6,5,0,-6
3933.41,-2,0,-5,-13
3933.41,-5,6,0,-14
3933.41,-5,15,12,-6
3933.41,1,29,23,-2
3933.41,2,29,20,-9
3933.41,-4,21,10,-22
3933.41,-16,12,4,-26
3933.41,-21,5,1,-24
3933.41,-18,8,7,-14
3933.41,-13,3,4,-7
3933.41,-10,-2,-1,-6
3933.41,-5,-1,0,-2
3933.41,-1,2,5,6
3933.41,8,9,8,9
3933.41,10,10,7,5
3933.41,6,6,6,7
3933.41,7,3,1,3
3933.42,3,-2,-3,-2
3933.42,-2,0,3,8
3933.42,9,6,6,9
3933.42,9,2,-1,1
3933.42,2,-2,-3,3
3933.42,6,1,1,9
3933.42,10,4,4,12
3933.42,12,4,2,11
3933.42,9,-5,-6,9
3933.42,4,-18,-16,6
3933.42,4,-18,-15,10
3933.42,10,-10,-7,16
3933.42,15,-7,-4,20
3933.42,23,5,5,22
3933.42,23,8,5,15
3933.42,17,9,5,6
3933.42,7,6,3,1
3933.42,4,8,7,3
3933.43,5,11,7,0
3933.43,5,17,11,-5
3933.43,-1,18,10,-12
3933.43,-8,16,9,-17
3933.43,-14,11,7,-20
3933.43,-15,12,9,-20
3933.43,-17,9,7,-20
3933.43,-19,4,5,-18
3933.43,-17,4,5,-12
3933.43,-13,-1,0,-8
3933.43,-7,1,1,-1
3933.43,0,4,6,5
3933.43,5,4,4,5
3933.43,6,4,4,6
3933.43,8,9,12,12
3933.43,11,11,12,12
3933.43,9,6,6,8
3933.44,5,-1,0,3
3933.44,0,-7,-6,0
3933.44,0,-6,-3,6
3933.44,6,-3,-2,8
3933.44,10,1,0,9
3933.44,13,3,0,8
3933.44,11,-1,-6,3
3933.44,7,-3,-6,5
3933.44,5,-12,-10,10
3933.44,9,-12,-9,16
3933.44,15,-7,-5,17
3933.44,15,-7,-4,17
3933.44,15,-5,-3,16
3933.44,16,0,1,14
3933.44,13,3,3,11
3933.44,11,6,3,4
3933.44,5,6,3,-2
3933.45,-1,7,6,0
3933.45,3,15,14,2
3933.45,7,21,16,-1
3933.45,2,20,13,-8
3933.45,-3,18,11,-13
3933.45,-9,13,8,-16
3933.45,-10,14,9,-16
3933.45,-13,9,6,-16
3933.45,-15,5,3,-15
3933.45,-15,0,0,-14
3933.45,-16,-5,-2,-8
3933.45,-8,0,4,0
3933.45,1,8,11,7
3933.45,5,9,11,9
3933.45,6,7,9,9
3933.45,4,3,5,4
3933.45,1,0,1,2
3933.45,0,-2,0,3
3933.46,0,-5,-4,0
3933.46,1,-5,-8,0
3933.46,4,-4,-9,1
3933.46,8,-1,-8,4
3933.46,13,2,-9,2
3933.46,14,7,-3,4
3933.46,16,13,4,10
3933.46,16,11,6,13
3933.46,10,-6,-3,16
3933.46,11,-12,-7,16
3933.46,13,-9,-3,17
3933.46,10,-11,-5,15
3933.46,10,-7,-2,14
3933.46,11,-2,1,15
3933.46,13,4,7,17
3933.46,14,10,14,16
3933.46,12,10,12,10
3933.47,4,5,6,0
3933.47,-1,7,8,-4
3933.47,-5,11,14,-5
3933.47,-9,10,14,-8
3933.47,-10,8,4,-17
3933.47,-12,9,-1,-25
3933.47,-16,8,-1,-26
3933.47,-18,4,-2,-22
3933.47,-13,8,1,-14
3933.47,-5,11,8,-2
3933.47,-1,8,10,4
3933.47,3,6,8,3
3933.47,0,8,19,13
3933.47,0,2,16,11
3933.47,-3,-8,-5,-3
3933.47,-4,-9,-11,-4
3933.47,0,-6,-14,-7
3933.47,1,-7,-18,-9
3933.48,2,-6,-18,-6
3933.48,13,8,-5,5
3933.48,27,26,15,20
3933.48,32,25,11,14
3933.48,25,24,19,23
3933.48,22,21,26,26
3933.48,12,9,22,21
3933.48,0,-5,13,18
3933.48,-7,-24,-5,8
3933.48,-13,-38,-30,-12
3933.48,-18,-43,-48,-25
3933.48,-14,-32,-42,-16
3933.48,7,-2,-15,5
3933.48,26,15,2,17
3933.48,35,31,25,31
3933.48,34,34,40,37
3933.48,23,23,34,26
3933.49,8,10,23,16
3933.49,0,10,24,8
3933.49,-10,0,7,-13
3933.49,-24,-12,-19,-38
3933.49,-27,-5,-19,-38
3933.49,-17,8,-8,-30
3933.49,-9,16,2,-17
3933.49,-2,22,18,-1
3933.49,1,24,33,16
3933.49,1,5,10,3
3933.49,-3,0,5,0
3933.49,-5,0,8,3
3933.49,-8,-11,-8,-7
3933.49,-9,-15,-18,-10
3933.49,0,-5,-17,-6
3933.49,13,11,-3,-1
3933.49,13,12,0,0
3933.5,7,4,-7,-3
3933.5,8,9,6,11
3933.5,15,19,26,29
3933.5,19,12,19,22
3933.5,8,-2,7,13
3933.5,2,-2,10,18
3933.5,7,0,10,17
3933.5,6,-4,1,7
3933.5,-4,-15,-1,11
3933.5,-6,-33,-28,-5
3933.5,-10,-36,-37,-10
3933.5,0,-18,-17,9
3933.5,15,-5,-7,18
3933.5,26,4,-2,18
3933.5,28,10,0,16
3933.5,29,11,-10,2
3933.5,26,18,-3,3
3933.5,24,23,5,4
3933.51,19,26,20,11
3933.51,14,27,29,13
3933.51,10,25,24,2
3933.51,0,21,20,-8
3933.51,-13,10,10,-19
3933.51,-28,-8,-13,-38
3933.51,-36,-15,-21,-40
3933.51,-27,-1,0,-16
3933.51,-10,12,18,3
3933.51,-7,4,16,7
3933.51,-8,-7,0,-1
3933.51,-8,-7,-1,1
3933.51,1,1,6,8
3933.51,7,5,6,8
3933.51,5,0,-1,3
3933.51,6,0,-9,-1
3933.51,9,1,-10,0
3933.52,14,9,3,10
3933.52,16,14,17,21
3933.52,15,12,26,28
3933.52,8,1,19,23
3933.52,5,-2,11,17
3933.52,3,-6,-1,3
3933.52,-6,-18,-20,-15
3933.52,-14,-22,-24,-14
3933.52,-11,-26,-28,-6
3933.52,3,-14,-19,5
3933.52,19,4,1,22
3933.52,27,5,0,20
3933.52,25,4,-4,14
3933.52,25,13,4,15
3933.52,26,13,-2,4
3933.52,20,17,4,5
3933.52,14,12,0,-1
3933.52,7,11,8,3
3933.53,9,20,21,9
3933.53,6,18,20,3
3933.53,0,17,16,-5
3933.53,-8,9,9,-13
3933.53,-16,4,4,-18
3933.53,-21,1,4,-17
3933.53,-21,3,9,-13
3933.53,-18,3,7,-15
3933.53,-23,-9,-4,-19
3933.53,-25,-13,-6,-10
3933.53,-9,0,2,-1
3933.53,2,4,-2,-3
3933.53,6,8,0,1
3933.53,11,9,-1,1
3933.53,11,10,3,5
3933.53,12,15,17,19
3933.53,16,19,28,30
3933.54,17,11,20,20
3933.54,4,-2,9,12
3933.54,-4,-11,0,6
3933.54,-5,-13,-4,3
3933.54,-1,-6,-3,2
3933.54,1,-7,-12,-5
3933.54,2,-6,-16,-6
3933.54,5,-2,-14,-1
3933.54,9,-3,-6,11
3933.54,14,-3,-1,17
3933.54,17,-1,1,19
3933.54,16,-4,-5,12
3933.54,15,-2,-9,6
3933.54,15,2,-4,7
3933.54,16,10,3,8
3933.54,13,12,9,8
3933.54,10,13,14,10
3933.54,7,12,13,6
3933.55,4,11,9,-3
3933.55,-4,4,-1,-15
3933.55,-12,3,-2,-17
3933.55,-8,13,14,-4
3933.55,-3,24,34,10
3933.55,-3,15,24,0
3933.55,-17,-4,0,-16
3933.55,-24,-6,3,-11
3933.55,-24,-9,6,-3
3933.55,-18,-19,-12,-12
3933.55,-16,-20,-21,-13
3933.55,-6,-12,-17,-7
3933.55,6,1,-7,2
3933.55,20,22,14,19
3933.55,30,30,20,20
3933.55,26,23,13,14
3933.55,18,17,14,15
3933.56,14,9,6,7
3933.56,6,0,-6,-3
3933.56,0,-3,-5,-2
3933.56,1,-2,-5,-1
3933.56,4,1,-3,0
3933.56,7,5,-4,-4
3933.56,6,7,-2,-2
3933.56,5,8,6,6
3933.56,5,1,0,4
3933.56,2,-3,-1,5
3933.56,0,-9,-4,7
3933.56,4,-6,-1,11
3933.56,12,7,9,15
3933.56,14,12,17,17
3933.56,9,7,13,10
3933.56,2,0,2,-1
3933.56,-5,-2,0,-4
3933.57,-7,-4,-1,-5
3933.57,-6,-2,-5,-9
3933.57,-3,3,-1,-9
3933.57,2,12,1,-8
3933.57,3,13,0,-12
3933.57,3,22,13,-2
3933.57,3,16,14,0
3933.57,0,6,4,-2
3933.57,0,8,4,-2
3933.57,0,2,-3,-7
3933.57,-2,-1,-6,-6
3933.57,-1,0,0,1
3933.57,4,4,7,9
3933.57,10,10,13,15
3933.57,12,10,13,14
3933.57,8,5,10,9
3933.57,2,1,7,5
3933.57,-3,-6,-3,-2
3933.58,-7,-8,-5,-3
3933.58,-6,-8,-7,-6
3933.58,-6,-8,-8,-6
3933.58,-2,0,1,3
3933.58,6,8,11,13
3933.58,12,12,14,16
3933.58,13,8,8,10
3933.58,5,-5,-4,6
3933.58,3,-12,-12,3
3933.58,7,-7,-12,2
3933.58,10,-2,-10,4
3933.58,14,0,-14,0
3933.58,15,5,-9,0
3933.58,18,13,0,5
3933.58,20,24,17,14
3933.58,19,25,27,19
3933.58,12,18,27,17
3933.59,2,8,19,7
3933.59,-7,-4,0,-10
3933.59,-17,-3,5,-8
3933.59,-18,1,18,1
3933.59,-16,-4,5,-9
3933.59,-18,-11,-14,-24
3933.59,-17,-3,-11,-21
3933.59,-10,1,-5,-14
3933.59,-6,1,-6,-11
3933.59,0,5,0,-2
3933.59,7,16,16,13
3933.59,14,16,17,16
3933.59,12,9,9,10
3933.59,6,0,-3,0
3933.59,4,3,0,4
3933.59,9,9,10,11
3933.59,9,4,1,4
3933.59,5,0,-2,1
3933.6,2,-2,-4,0
3933.6,4,2,1,4
3933.6,8,5,0,2
3933.6,8,5,-4,-2
3933.6,6,3,-2,0
3933.6,6,2,-7,-3
3933.6,7,5,0,5
3933.6,8,7,13,20
3933.6,11,0,2,11
3933.6,5,-7,-4,6
3933.6,5,-5,-2,9
3933.6,7,-1,2,10
3933.6,7,1,4,10
3933.6,7,0,-3,0
3933.6,4,3,-1,-1
3933.6,3,6,3,0
3933.6,2,6,7,2
3933.61,2,8,8,1
3933.61,1,11,10,0
3933.61,1,13,10,-3
3933.61,-3,9,7,-6
3933.61,-7,6,6,-7
3933.61,-9,5,9,-4
3933.61,-8,3,6,-3
3933.61,-6,2,2,-5
3933.61,-7,0,0,-5
3933.61,-5,-2,0,-2
3933.61,-3,-1,1,1
3933.61,0,3,6,7
3933.61,5,5,9,10
3933.61,6,4,7,8
3933.61,4,1,0,2
3933.61,2,0,-1,1
3933.61,4,2,0,2
3933.62,7,4,0,3
3933.62,9,6,0,3
3933.62,9,4,0,2
3933.62,7,4,0,4
3933.62,8,4,1,6
3933.62,10,7,5,7
3933.62,8,4,2,6
3933.62,4,-2,-3,3
3933.62,0,-7,-5,4
3933.62,3,-5,-5,7
3933.62,7,-3,-4,6
3933.62,7,-4,-6,6
3933.62,9,0,-2,8
3933.62,11,5,5,11
3933.62,11,12,17,16
3933.62,9,10,18,14
3933.62,4,4,10,4
3933.62,-2,-2,-3,-7
3933.63,-6,-1,-4,-13
3933.63,-7,4,0,-10
3933.63,-2,11,4,-9
3933.63,0,15,9,-4
3933.63,2,19,17,1
3933.63,0,12,13,-1
3933.63,-6,-2,-6,-15
3933.63,-11,-7,-14,-17
3933.63,-7,-1,-8,-6
3933.63,3,5,2,2
3933.63,6,7,5,5
3933.63,8,7,5,7
3933.63,9,9,10,9
3933.63,8,8,9,8
3933.63,4,4,7,7
3933.63,3,1,3,5
3933.63,1,0,0,2
3933.64,2,0,1,4
3933.64,4,3,3,6
3933.64,7,3,0,1
3933.64,3,-1,-5,-1
3933.64,3,0,-3,0
3933.64,5,3,0,3
3933.64,6,1,0,4
3933.64,4,-2,-4,5
3933.64,6,-4,-5,7
3933.64,9,-1,1,13
3933.64,10,1,6,16
3933.64,11,0,4,13
3933.64,11,3,6,12
3933.64,9,4,7,9
3933.64,5,3,4,4
3933.64,0,0,0,-3
3933.64,-1,1,-1,-6
3933.65,-2,3,-1,-9
3933.65,-3,7,3,-6
3933.65,-3,9,8,-3
3933.65,-1,10,8,-4
3933.65,-2,9,7,-4
3933.65,-1,10,8,-3
3933.65,-2,5,1,-6
3933.65,-3,3,1,-4
3933.65,0,5,3,-2
3933.65,0,3,1,0
3933.65,3,5,4,3
3933.65,5,7,7,7
3933.65,5,10,17,14
3933.65,3,4,11,9
3933.65,0,-1,2,0
3933.65,-5,-7,-6,-4
3933.65,-5,-8,-7,-3
3933.65,0,-5,-8,-3
3933.66,3,1,-4,0
3933.66,8,7,2,5
3933.66,12,9,3,7
3933.66,13,10,6,9
3933.66,12,10,7,7
3933.66,10,8,6,6
3933.66,3,-1,0,6
3933.66,1,-10,-7,5
3933.66,4,-6,-3,6
3933.66,5,-3,0,7
3933.66,3,-5,0,8
3933.66,6,-1,0,8
3933.66,10,5,5,10
3933.66,11,8,5,6
3933.66,5,6,9,7
3933.66,1,2,7,5
3933.66,0,0,3,2
3933.67,2,6,6,0
3933.67,0,5,2,-6
3933.67,-4,1,-6,-15
3933.67,-6,4,0,-11
3933.67,-2,10,5,-5
3933.67,0,13,7,-3
3933.67,2,10,3,-6
3933.67,0,6,-4,-11
3933.67,-1,4,-3,-6
3933.67,3,9,5,3
3933.67,8,11,9,7
3933.67,7,9,9,7
3933.67,5,6,7,6
3933.67,3,3,4,5
3933.67,1,1,4,4
3933.67,1,0,1,3
3933.67,1,0,3,4
3933.67,1,-1,0,1
3933.68,0,-2,-3,0
3933.68,0,-2,-4,0
3933.68,3,0,-2,1
3933.68,6,4,3,6
3933.68,8,6,6,8
3933.68,8,5,7,10
3933.68,6,1,7,11
3933.68,3,-8,-6,4
3933.68,1,-12,-15,-1
3933.68,3,-3,-5,5
3933.68,8,0,1,10
3933.68,10,3,2,9
3933.68,10,4,5,11
3933.68,11,8,9,11
3933.68,10,8,11,11
3933.68,7,7,11,7
3933.68,1,0,-1,-4
3933.69,-2,1,1,-5
3933.69,-2,6,4,-5
3933.69,-2,8,5,-7
3933.69,-5,5,0,-11
3933.69,-6,6,2,-10
3933.69,-4,8,4,-6
3933.69,-3,9,8,-2
3933.69,-1,9,10,1
3933.69,-2,2,7,2
3933.69,-1,0,3,1
3933.69,0,0,0,0
3933.69,2,0,-5,-2
3933.69,3,0,-7,-3
3933.69,5,4,-3,0
3933.69,10,9,4,6
3933.69,10,8,6,9
3933.69,10,8,7,9
3933.69,8,7,8,10
3933.7,6,4,5,8
3933.7,4,0,0,3
3933.7,2,0,0,2
3933.7,3,0,0,1
3933.7,2,0,-1,0
3933.7,0,0,-1,1
3933.7,0,-6,-2,4
3933.7,2,-5,-2,6
3933.7,5,-2,0,9
3933.7,7,-3,-1,9
3933.7,8,0,0,10
3933.7,11,6,4,10
3933.7,12,6,6,8
3933.7,11,7,3,2
3933.7,5,3,-2,-2
3933.7,2,1,-5,-4
3933.7,2,3,-2,-3
3933.71,4,9,3,-3
3933.71,5,14,7,-1
3933.71,5,19,18,5
3933.71,4,18,24,8
3933.71,-1,8,11,-3
3933.71,-11,-4,-4,-16
3933.71,-16,-7,-7,-16
3933.71,-16,-7,-5,-10
3933.71,-12,-5,-1,-2
3933.71,-1,2,5,5
3933.71,6,7,8,8
3933.71,9,10,10,10
3933.71,9,8,7,9
3933.71,9,7,6,8
3933.71,8,6,6,7
3933.71,6,3,4,5
3933.71,3,0,0,3
3933.72,2,0,-1,0
3933.72,1,0,-4,-1
3933.72,2,0,-3,-1
3933.72,3,2,1,4
3933.72,6,4,2,4
3933.72,7,3,1,4
3933.72,6,2,0,4
3933.72,4,-4,-3,5
3933.72,5,-3,-3,6
3933.72,7,-2,0,9
3933.72,8,0,2,12
3933.72,10,0,2,10
3933.72,7,0,0,5
3933.72,6,2,1,5
3933.72,7,5,0,0
3933.72,4,5,0,-3
3933.72,1,3,-3,-7
3933.72,1,6,-1,-6
3933.73,3,12,6,-1
3933.73,4,14,8,0
3933.73,4,11,3,-4
3933.73,3,16,12,1
3933.73,2,16,20,6
3933.73,-2,8,14,2
3933.73,-7,-2,-2,-11
3933.73,-11,-4,-4,-8
3933.73,-7,-3,-3,-5
3933.73,-4,-3,-4,-4
3933.73,-2,0,0,0
3933.73,2,6,9,8
3933.73,6,7,10,10
3933.73,5,1,3,7
3933.73,5,2,3,6
3933.73,5,2,1,3
3933.73,2,1,0,2
3933.74,4,4,4,7
3933.74,7,4,3,6
3933.74,5,2,0,2
3933.74,3,0,-1,1
3933.74,2,0,0,3
3933.74,5,3,4,7
3933.74,6,2,4,9
3933.74,3,-5,-4,3
3933.74,0,-9,-8,1
3933.74,3,-5,-6,4
3933.74,7,-1,-2,8
3933.74,11,5,4,11
3933.74,11,6,2,5
3933.74,10,6,2,4
3933.74,10,14,16,13
3933.74,11,15,23,17
3933.74,4,7,18,12
3933.74,-1,1,9,0
3933.75,-9,-6,-5,-12
3933.75,-13,-8,-15,-23
3933.75,-13,-10,-30,-35
3933.75,-10,-1,-22,-25
3933.75,3,21,6,-1
3933.75,17,30,19,8
3933.75,17,24,15,4
3933.75,9,12,5,0
3933.75,3,7,6,2
3933.75,1,6,10,8
3933.75,3,4,8,7
3933.75,1,1,6,5
3933.75,1,1,7,7
3933.75,0,0,5,4
3933.75,-2,-1,4,5
3933.75,-1,-4,0,1
3933.75,0,-2,0,3
3933.76,2,0,1,3
3933.76,3,1,0,2
3933.76,2,0,-1,1
3933.76,2,1,0,3
3933.76,4,2,1,3
3933.76,4,1,0,4
3933.76,3,-3,-5,2
3933.76,2,-7,-8,2
3933.76,4,-3,-4,7
3933.76,9,0,0,9
3933.76,10,0,0,8
3933.76,9,1,1,8
3933.76,8,3,3,8
3933.76,9,8,8,10
3933.76,10,13,12,9
3933.76,9,13,11,6
3933.76,5,8,6,0
3933.76,1,5,1,-6
3933.77,-3,3,0,-9
3933.77,-4,4,1,-8
3933.77,-4,7,3,-7
3933.77,-3,7,4,-6
3933.77,-4,5,3,-6
3933.77,-4,6,4,-3
3933.77,-3,6,8,0
3933.77,-1,2,6,3
3933.77,0,1,3,2
3933.77,0,2,2,1
3933.77,0,0,0,0
3933.77,0,0,-1,0
3933.77,2,2,2,4
3933.77,6,4,1,4
3933.77,7,4,1,4
3933.77,7,5,2,4
3933.77,7,5,3,5
3933.78,7,5,4,6
3933.78,7,4,0,3
3933.78,6,1,-5,-1
3933.78,5,2,-2,0
3933.78,7,5,2,4
3933.78,6,8,10,13
3933.78,6,0,3,10
3933.78,5,-2,3,10
3933.78,3,-2,8,15
3933.78,0,-14,-6,4
3933.78,-1,-13,-12,-1
3933.78,1,-5,-9,-1
3933.78,6,1,-5,0
3933.78,10,8,0,2
3933.78,10,11,5,4
3933.78,10,12,10,8
3933.78,10,15,14,8
3933.79,8,15,13,4
3933.79,2,9,7,-3
3933.79,-4,3,3,-7
3933.79,-8,1,1,-8
3933.79,-7,3,5,-5
3933.79,-3,7,7,-4
3933.79,-4,6,4,-7
3933.79,-7,1,0,-6
3933.79,-6,-1,-1,-3
3933.79,-2,0,0,0
3933.79,3,3,2,3
3933.79,5,3,3,5
3933.79,5,1,0,2
3933.79,6,2,1,5
3933.79,9,7,4,6
3933.79,9,6,4,5
3933.79,6,4,2,3
3933.79,5,4,3,5
3933.8,6,4,2,4
3933.8,5,2,2,5
3933.8,5,4,4,7
3933.8,5,3,3,5
3933.8,4,0,0,5
3933.8,2,-2,-1,3
3933.8,0,-9,-10,0
3933.8,1,-7,-9,1
3933.8,4,-5,-6,4
3933.8,9,2,0,10
3933.8,15,11,9,13
3933.8,13,8,6,8
3933.8,9,6,4,5
3933.8,6,5,4,2
3933.8,2,3,4,1
3933.8,0,2,3,1
3933.8,0,6,5,0
3933.81,0,8,9,0
3933.81,-1,10,12,0
3933.81,-3,6,9,-3
3933.81,-7,2,1,-9
3933.81,-9,1,0,-9
3933.81,-7,3,0,-7
3933.81,-5,2,0,-8
3933.81,-4,-1,-7,-6
3933.81,1,3,-3,-2
3933.81,7,10,6,7
3933.81,10,12,12,11
3933.81,9,9,11,11
3933.81,8,5,7,8
3933.81,6,5,6,5
3933.81,2,2,2,1
3933.81,0,-1,-1,0
3933.81,0,-1,-3,-1
3933.81,1,0,-2,0
3933.82,5,3,0,1
3933.82,5,0,-2,1
3933.82,4,0,-4,3
3933.82,7,4,3,8
3933.82,10,8,8,12
3933.82,10,4,5,10
3933.82,6,0,2,9
3933.82,4,-5,-2,6
3933.82,3,-6,-3,4
3933.82,3,-4,-3,6
3933.82,6,0,0,5
3933.82,4,0,0,3
3933.82,5,3,3,3
3933.82,5,6,4,2
3933.82,5,7,4,1
3933.82,3,7,4,0
3933.82,0,6,4,-2
3933.83,-1,6,5,-1
3933.83,0,11,12,0
3933.83,1,11,10,0
3933.83,0,10,9,-2
3933.83,-3,6,5,-5
3933.83,-6,2,1,-6
3933.83,-6,0,-1,-6
3933.83,-3,0,-2,-4
3933.83,0,2,0,-1
3933.83,3,5,2,2
3933.83,4,4,2,3
3933.83,5,6,7,8
3933.83,6,7,10,11
3933.83,6,5,9,9
3933.83,5,3,6,7
3933.83,2,-1,-1,1
3933.83,0,-2,-3,0
3933.83,1,-3,-8,-5
3933.84,1,-2,-9,-4
3933.84,4,4,1,4
3933.84,9,8,8,10
3933.84,10,8,9,10
3933.84,7,2,2,6
3933.84,2,-4,-3,3
3933.84,2,-8,-7,3
3933.84,4,-4,-3,6
3933.84,8,0,1,9
3933.84,7,-1,0,8
3933.84,8,3,6,11
3933.84,8,4,4,7
3933.84,6,3,0,0
3933.84,4,4,0,0
3933.84,4,5,0,-1
3933.84,5,11,9,3
3933.84,6,12,10,1
3933.85,2,7,2,-7
3933.85,-1,5,-2,-12
3933.85,-2,8,2,-6
3933.85,0,11,9,-1
3933.85,0,9,9,-1
3933.85,-2,4,3,-4
3933.85,-4,0,0,-4
3933.85,-4,-2,-3,-4
3933.85,-1,2,2,1
3933.85,1,5,6,5
3933.85,5,8,10,8
3933.85,6,7,7,6
3933.85,4,2,2,2
3933.85,1,0,-2,0
3933.85,0,-1,-2,0
3933.85,1,1,2,3
3933.85,3,3,5,7
3933.86,6,4,6,7
3933.86,5,2,2,4
3933.86,4,0,-2,0
3933.86,2,1,0,3
3933.86,4,3,3,5
3933.86,6,1,1,5
3933.86,2,-4,-3,5
3933.86,3,-5,-4,5
3933.86,5,-2,-1,8
3933.86,7,-2,-2,8
3933.86,9,1,1,8
3933.86,10,3,4,9
3933.86,9,6,6,8
3933.86,8,6,5,4
3933.86,5,4,1,0
3933.86,3,3,-3,-4
3933.86,2,6,-2,-7
3933.86,1,8,1,-5
3933.87,2,12,7,-1
3933.87,3,14,10,0
3933.87,2,14,12,0
3933.87,0,12,13,1
3933.87,-3,7,11,0
3933.87,-7,0,6,-3
3933.87,-11,-6,-2,-6
3933.87,-9,-8,-6,-7
3933.87,-6,-4,-5,-4
3933.87,0,0,-2,0
3933.87,4,7,6,7
3933.87,8,9,10,11
3933.87,8,3,0,3
3933.87,6,2,-2,0
3933.87,5,3,2,4
3933.87,7,7,6,7
3933.87,6,5,5,8
3933.88,6,4,6,7
3933.88,6,3,3,4
3933.88,4,0,0,1
3933.88,1,-2,-4,-1
3933.88,1,-2,-3,1
3933.88,3,-1,0,5
3933.88,5,-4,-5,5
3933.88,7,-3,-5,4
3933.88,7,0,0,9
3933.88,9,0,2,12
3933.88,13,7,6,12
3933.88,12,7,4,7
3933.88,9,6,0,1
3933.88,4,3,-1,-2
3933.88,2,4,0,-1
3933.88,3,7,5,1
3933.88,5,11,9,1
3933.89,3,11,8,-1
3933.89,-1,9,8,-3
3933.89,-5,6,8,-3
3933.89,-6,4,5,-5
3933.89,-7,3,2,-6
3933.89,-6,3,1,-7
3933.89,-6,0,0,-7
3933.89,-5,-2,-2,-3
3933.89,-2,0,0,1
3933.89,3,4,5,5
3933.89,6,6,5,5
3933.89,5,4,3,4
3933.89,5,5,4,5
3933.89,6,4,4,6
3933.89,6,4,3,5
3933.89,6,4,3,4
3933.89,4,1,0,1
3933.89,3,1,1,3
3933.9,5,2,2,5
3933.9,5,4,3,4
3933.9,6,4,3,4
3933.9,5,2,0,1
3933.9,2,0,0,2
3933.9,1,-3,-3,3
3933.9,2,-6,-6,3
3933.9,4,-2,-3,6
3933.9,8,0,1,9
3933.9,9,2,3,10
3933.9,10,5,5,10
3933.9,9,6,7,9
3933.9,7,7,10,9
3933.9,5,3,3,0
3933.9,0,-1,-2,-4
3933.9,-2,0,-4,-6
3933.9,0,5,0,-3
3933.91,2,10,6,-2
3933.91,1,9,3,-5
3933.91,1,9,1,-7
3933.91,0,14,8,-1
3933.91,0,11,9,-1
3933.91,-1,10,13,3
3933.91,-1,5,7,0
3933.91,-3,-1,0,-3
3933.91,-4,-2,-1,-3
3933.91,-3,-1,-1,-2
3933.91,-2,-2,0,0
3933.91,1,0,0,3
3933.91,6,4,3,5
3933.91,8,6,2,5
3933.91,8,5,2,5
3933.91,6,4,4,6
3933.91,7,5,4,6
3933.91,7,5,1,3
3933.92,7,4,1,2
3933.92,4,0,-2,0
3933.92,2,-1,-3,0
3933.92,3,2,1,5
3933.92,7,5,5,7
3933.92,5,-1,0,6
3933.92,3,-3,0,7
3933.92,4,-3,2,10
3933.92,5,-4,0,8
3933.92,7,-1,0,9
3933.92,8,2,1,5
3933.92,6,2,1,3
3933.92,4,5,4,2
3933.92,3,6,5,2
3933.92,4,7,5,1
3933.92,2,6,3,-1
3933.92,0,4,1,-4
3933.93,-2,5,3,-5
3933.93,-2,4,2,-4
3933.93,0,10,6,-2
3933.93,2,12,8,-3
3933.93,-1,7,3,-5
3933.93,-3,5,2,-4
3933.93,-3,4,3,-1
3933.93,0,4,5,2
3933.93,2,4,5,2
3933.93,0,2,3,1
3933.93,0,0,1,2
3933.93,1,0,-1,1
3933.93,2,0,0,2
3933.93,4,3,1,3
3933.93,5,4,1,3
3933.93,5,3,1,4
3933.93,6,4,3,5
3933.94,7,5,4,7
3933.94,7,5,5,7
3933.94,7,4,4,5
3933.94,5,3,1,3
3933.94,4,4,4,5
3933.94,3,0,2,5
3933.94,1,-6,-2,4
3933.94,2,-7,-3,4
3933.94,3,-4,-2,5
3933.94,2,-5,-3,5
3933.94,5,-2,-2,6
3933.94,6,1,0,5
3933.94,8,6,2,4
3933.94,8,8,4,4
3933.94,8,8,2,1
3933.94,6,6,0,-1
3933.94,5,8,0,-3
3933.94,4,11,5,-1
3933.95,5,16,12,1
3933.95,3,15,14,1
3933.95,0,9,11,-2
3933.95,-6,5,9,-2
3933.95,-9,0,5,-3
3933.95,-9,0,5,-3
3933.95,-10,-4,1,-3
3933.95,-8,-8,-8,-7
3933.95,-5,-5,-9,-7
3933.95,0,0,-4,-3
3933.95,5,6,2,4
3933.95,11,12,10,12
3933.95,13,12,11,11
3933.95,11,9,7,7
3933.95,8,7,6,6
3933.95,6,4,4,4
3933.95,2,0,0,1
3933.96,1,-2,-3,0
3933.96,3,-1,-6,-1
3933.96,4,4,1,3
3933.96,6,4,4,5
3933.96,4,2,3,6
3933.96,2,-4,-1,6
3933.96,3,-5,-2,7
3933.96,6,-3,-4,6
3933.96,6,-3,-5,3
3933.96,6,-2,-4,5
3933.96,10,3,2,9
3933.96,11,7,7,11
3933.96,11,9,7,8
3933.96,7,5,3,0
3933.96,2,4,5,3
3933.96,1,4,5,1
3933.96,1,4,2,-3
3933.96,0,7,3,-4
3933.97,-1,9,8,-4
3933.97,-2,6,5,-6
3933.97,-5,6,5,-5
3933.97,-5,4,2,-6
3933.97,-4,4,2,-5
3933.97,-3,4,1,-4
3933.97,-3,0,0,-2
3933.97,-1,1,2,1
3933.97,3,5,5,5
3933.97,5,5,5,5
3933.97,4,2,2,2
3933.97,1,1,1,3
3933.97,2,3,4,5
3933.97,5,3,4,6
3933.97,6,4,2,4
3933.97,6,3,1,4
3933.97,6,4,2,5
3933.98,6,3,2,4
3933.98,6,3,1,4
3933.98,5,3,0,2
3933.98,4,1,0,1
3933.98,3,0,-1,1
3933.98,1,-5,-3,5
3933.98,4,-4,-3,6
3933.98,8,0,0,8
3933.98,8,0,0,9
3933.98,9,1,1,8
3933.98,8,1,2,8
3933.98,8,3,1,4
3933.98,6,4,3,3
3933.98,5,5,4,3
3933.98,3,4,3,0
3933.98,3,9,8,2
3933.98,2,10,11,1
3933.98,0,8,7,-2
3933.99,-4,2,-2,-10
3933.99,-5,3,-4,-12
3933.99,-3,5,-2,-12
3933.99,-3,7,1,-7
3933.99,0,11,7,0
3933.99,2,10,11,4
3933.99,2,8,11,7
3933.99,2,3,6,3
3933.99,0,1,3,2
3933.99,-1,0,4,4
3933.99,0,0,3,4
3933.99,1,0,3,3
3933.99,1,-2,-2,0
3933.99,0,-2,-3,0
3933.99,2,0,-1,2
3933.99,5,2,2,5
3933.99,7,6,5,7
3934,9,6,5,6
3934,7,3,2,4
3934,5,2,1,3
3934,4,2,1,3
3934,3,0,0,4
3934,2,-4,-4,3
3934,3,-5,-5,4
3934,5,-2,-3,5
3934,7,0,-1,7
3934,11,4,2,10
3934,12,6,3,8
3934,11,6,4,6
3934,8,8,4,4
3934,5,5,5,3
3934,3,5,5,2
3934,3,7,4,0
3934,0,6,3,-4
3934,-3,6,4,-5
3934.01,-3,6,4,-6
3934.01,-3,8,7,-5
3934.01,-3,9,7,-5
3934.01,-4,5,4,-5
3934.01,-5,2,0,-6
3934.01,-5,-1,-2,-5
3934.01,-2,1,-1,-2
3934.01,2,5,2,2
3934.01,5,5,4,4
3934.01,5,6,6,7
3934.01,6,5,7,8
3934.01,6,3,4,7
3934.01,6,4,4,6
3934.01,4,2,5,6
3934.01,3,0,2,4
3934.01,2,0,1,4
3934.01,2,0,0,2
3934.02,2,-2,-3,0
3934.02,3,1,-2,0
3934.02,4,2,0,2
3934.02,4,3,3,4
3934.02,4,0,3,7
3934.02,4,-3,0,6
3934.02,5,-4,-2,6
3934.02,5,-3,-2,5
3934.02,6,-2,-2,6
3934.02,9,4,5,10
3934.02,9,4,7,10
3934.02,9,7,8,9
3934.02,7,8,12,9
3934.02,3,3,4,1
3934.02,0,0,-3,-5
3934.02,-1,2,-5,-11
3934.02,-4,2,-5,-11
3934.03,-2,7,1,-5
3934.03,0,6,1,-4
3934.03,2,9,1,-7
3934.03,2,12,3,-5
3934.03,3,13,4,-2
3934.03,5,11,4,-1
3934.03,3,9,6,3
3934.03,5,9,11,6
3934.03,3,6,12,8
3934.03,-1,-1,3,1
3934.03,-2,-3,-1,0
3934.03,-1,-1,0,0
3934.03,0,0,2,2
3934.03,1,2,4,5
3934.03,5,4,5,6
3934.03,5,2,3,4
3934.03,5,3,2,3
3934.03,3,2,2,3
3934.04,3,2,3,5
3934.04,4,2,3,4
3934.04,3,0,0,3
3934.04,2,-1,0,4
3934.04,2,-3,0,7
3934.04,2,-7,-3,6
3934.04,4,-6,-4,6
3934.04,6,-3,-3,8
3934.04,9,0,0,7
3934.04,9,2,1,8
3934.04,10,6,4,7
3934.04,10,10,6,5
3934.04,8,10,7,3
3934.04,4,7,5,0
3934.04,1,4,0,-4
3934.04,0,4,0,-5
3934.04,-1,6,2,-4
3934.05,0,10,7,-2
3934.05,1,10,7,-2
3934.05,0,9,6,-3
3934.05,-2,7,4,-4
3934.05,-3,6,6,-2
3934.05,-3,1,0,-5
3934.05,-4,-1,-1,-3
3934.05,-1,1,0,0
3934.05,0,0,0,0
3934.05,2,1,-2,0
3934.05,5,5,0,0
3934.05,8,9,4,5
3934.05,7,8,7,6
3934.05,4,3,5,7
3934.05,4,2,4,6
3934.05,5,3,4,6
3934.05,7,4,3,5
3934.05,5,3,1,4
3934.06,4,2,0,2
3934.06,4,1,2,5
3934.06,4,4,6,8
3934.06,3,0,4,7
3934.06,0,-10,-9,0
3934.06,0,-11,-12,0
3934.06,3,-2,-1,8
3934.06,7,0,2,11
3934.06,9,2,4,11
3934.06,11,4,4,9
3934.06,10,5,1,4
3934.06,7,5,1,0
3934.06,3,5,0,0
3934.06,3,4,2,0
3934.06,3,9,6,1
3934.06,4,12,9,1
3934.06,2,11,9,-2
3934.07,-2,6,3,-7
3934.07,-5,4,1,-9
3934.07,-4,5,1,-7
3934.07,-4,5,1,-6
3934.07,-3,4,1,-4
3934.07,-2,3,2,0
3934.07,0,3,3,2
3934.07,2,5,5,5
3934.07,5,6,6,5
3934.07,5,4,4,4
3934.07,3,3,2,2
3934.07,1,1,0,3
3934.07,4,3,2,3
3934.07,5,3,1,2
3934.07,4,2,1,3
3934.07,3,1,0,4
3934.07,4,1,0,4
3934.07,5,2,0,4
3934.08,7,4,1,4
3934.08,7,6,3,4
3934.08,6,6,7,7
3934.08,3,1,3,6
3934.08,0,-7,-2,5
3934.08,1,-7,-3,6
3934.08,2,-4,0,9
3934.08,3,-6,-3,5
3934.08,3,-4,-4,3
3934.08,6,0,-1,4
3934.08,10,8,5,6
3934.08,10,10,8,6
3934.08,7,9,6,4
3934.08,5,6,4,2
3934.08,4,8,4,-1
3934.08,2,7,1,-6
3934.08,0,6,0,-8
3934.09,-2,7,3,-6
3934.09,-1,9,6,-5
3934.09,-1,9,7,-3
3934.09,-1,8,8,-1
3934.09,-1,5,4,-3
3934.09,-3,0,1,-2
3934.09,-2,1,2,0
3934.09,1,3,4,2
3934.09,2,3,5,4
3934.09,0,1,4,5
3934.09,2,2,7,8
3934.09,4,2,6,7
3934.09,3,1,5,6
3934.09,2,-2,-3,0
3934.09,0,-2,-6,-2
3934.09,2,1,0,2
3934.09,4,4,3,6
3934.1,8,4,3,6
3934.1,7,4,2,4
3934.1,6,3,0,3
3934.1,5,2,-1,2
3934.1,4,-2,-4,2
3934.1,4,-5,-8,3
3934.1,8,0,-2,7
3934.1,10,2,0,8
3934.1,10,2,2,10
3934.1,11,5,4,10
3934.1,10,4,4,6
3934.1,8,5,2,3
3934.1,5,4,1,0
3934.1,2,5,2,0
3934.1,2,6,3,-1
3934.1,1,7,4,-3
3934.1,-1,6,3,-4
3934.1,-1,10,9,0
3934.11,-2,9,10,0
3934.11,-2,7,7,-3
3934.11,-5,3,3,-5
3934.11,-6,2,2,-5
3934.11,-6,1,1,-4
3934.11,-4,0,-1,-4
3934.11,-2,0,0,-1
3934.11,2,4,5,5
3934.11,5,7,7,7
3934.11,7,6,5,5
3934.11,5,3,2,4
3934.11,5,3,0,2
3934.11,5,1,-1,1
3934.11,4,3,0,3
3934.11,6,4,3,5
3934.11,7,4,3,5
3934.11,5,3,2,4
3934.12,4,3,3,4
3934.12,4,2,2,3
3934.12,3,1,0,1
3934.12,1,-1,0,2
3934.12,0,-6,-4,4
3934.12,2,-6,-4,5
3934.12,5,-2,0,8
3934.12,7,0,0,9
3934.12,10,3,3,9
3934.12,9,5,5,9
3934.12,9,6,4,6
3934.12,6,5,3,2
3934.12,3,4,3,1
3934.12,3,6,4,1
3934.12,4,8,5,0
3934.12,2,9,5,-3
3934.12,0,9,6,-4
3934.12,-3,8,7,-3
3934.13,-3,7,5,-4
3934.13,-4,3,1,-7
3934.13,-4,1,-1,-8
3934.13,-4,2,0,-6
3934.13,-3,-1,-4,-5
3934.13,0,0,-7,-5
3934.13,5,5,-2,0
3934.13,9,11,8,7
3934.13,11,13,15,14
3934.13,9,9,13,13
3934.13,7,5,11,11
3934.13,4,3,11,10
3934.13,1,-1,1,2
3934.13,-3,-9,-11,-8
3934.13,-5,-7,-10,-5
3934.13,1,0,-3,0
3934.13,6,7,6,7
3934.14,8,8,9,10
3934.14,7,5,7,8
3934.14,5,4,7,9
3934.14,3,-1,1,4
3934.14,0,-9,-7,1
3934.14,0,-6,-5,3
3934.14,2,-3,0,7
3934.14,5,-2,0,9
3934.14,8,1,1,8
3934.14,8,2,0,5
3934.14,7,3,0,3
3934.14,6,3,0,1
3934.14,5,4,0,1
3934.14,6,6,0,-1
3934.14,7,11,3,0
3934.14,6,13,6,-1
3934.14,5,14,9,0
3934.15,2,11,8,-2
3934.15,0,9,5,-5
3934.15,-3,6,2,-8
3934.15,-5,2,0,-8
3934.15,-4,4,2,-4
3934.15,-3,5,5,0
3934.15,0,4,7,4
3934.15,1,6,10,7
3934.15,0,2,7,5
3934.15,-2,-3,0,0
3934.15,-2,-3,0,1
3934.15,1,0,2,3
3934.15,2,0,1,3
3934.15,3,1,2,4
3934.15,3,0,2,5
3934.15,5,1,3,6
3934.15,6,3,2,5
3934.16,7,2,-2,0
3934.16,4,1,-3,0
3934.16,6,4,0,2
3934.16,7,4,0,4
3934.16,6,1,-1,5
3934.16,6,-1,-2,7
3934.16,8,0,0,8
3934.16,8,0,1,9
3934.16,9,2,3,10
3934.16,9,4,3,8
3934.16,8,3,3,7
3934.16,8,5,4,4
3934.16,4,5,4,2
3934.16,2,5,6,2
3934.16,0,4,6,1
3934.16,0,4,4,-2
3934.16,-3,3,1,-6
3934.16,-4,2,-3,-11
3934.17,-5,2,-5,-13
3934.17,-4,4,-5,-13
3934.17,0,7,-4,-11
3934.17,1,11,1,-6
3934.17,2,14,11,4
3934.17,4,12,15,10
3934.17,6,11,19,14
3934.17,6,7,14,12
3934.17,3,0,4,3
3934.17,0,-1,0,1
3934.17,0,-3,-2,-1
3934.17,-1,-2,0,1
3934.17,0,0,0,2
3934.17,3,2,4,6
3934.17,5,3,4,5
3934.17,4,1,0,2
3934.17,2,-1,-3,0
3934.18,2,0,-3,0
3934.18,4,2,0,2
3934.18,7,6,3,6
3934.18,8,4,1,4
3934.18,4,-2,-1,5
3934.18,5,-1,0,8
3934.18,7,0,2,10
3934.18,8,0,3,10
3934.18,7,0,1,7
3934.18,6,0,0,5
3934.18,5,0,0,4
3934.18,4,2,0,2
3934.18,4,1,-1,-1
3934.18,4,4,0,0
3934.18,5,10,6,1
3934.18,6,12,9,1
3934.18,4,11,8,-1
3934.18,0,9,7,-2
3934.19,-1,8,6,-4
3934.19,-3,7,6,-4
3934.19,-4,4,3,-6
3934.19,-6,2,0,-6
3934.19,-6,0,0,-5
3934.19,-3,0,0,-1
3934.19,0,1,1,0
3934.19,1,3,3,1
3934.19,2,3,3,4
3934.19,5,5,5,6
3934.19,7,6,5,5
3934.19,5,3,2,3
3934.19,3,1,1,2
3934.19,3,0,1,4
3934.19,3,1,1,5
3934.19,6,3,3,6
3934.19,7,5,4,6
3934.2,6,5,2,4
3934.2,6,4,3,5
3934.2,6,3,3,4
3934.2,4,0,0,2
3934.2,0,-6,-5,3
3934.2,2,-5,-4,4
3934.2,4,-3,-1,7
3934.2,6,-2,-1,8
3934.2,9,0,1,8
3934.2,9,2,1,5
3934.2,9,4,1,3
3934.2,7,6,3,2
3934.2,6,6,1,0
3934.2,4,6,2,0
3934.2,6,9,2,-3
3934.2,2,9,2,-5
3934.2,2,12,7,-3
3934.2,1,14,13,0
3934.21,0,9,9,-2
3934.21,-6,3,4,-6
3934.21,-8,0,1,-6
3934.21,-9,0,6,-2
3934.21,-7,-4,0,-2
3934.21,-4,-3,0,-1
3934.21,0,0,0,1
3934.21,3,3,1,3
3934.21,6,6,3,5
3934.21,8,8,6,7
3934.21,8,8,8,9
3934.21,9,8,8,9
3934.21,7,5,5,5
3934.21,3,1,0,1
3934.21,1,0,0,1
3934.21,0,-2,0,4
3934.21,3,-3,-6,0
3934.22,5,2,-2,1
3934.22,7,4,0,0
3934.22,5,2,0,2
3934.22,4,2,1,7
3934.22,6,0,1,9
3934.22,7,0,0,9
3934.22,8,0,0,7
3934.22,6,0,1,8
3934.22,7,2,2,6
3934.22,6,3,1,4
3934.22,5,4,1,2
3934.22,4,3,1,0
3934.22,2,3,1,0
3934.22,1,4,6,4
3934.22,3,6,9,5
3934.22,3,6,7,1
3934.22,1,9,9,-1
3934.23,-2,6,6,-4
3934.23,-4,6,3,-9
3934.23,-5,4,0,-10
3934.23,-5,5,0,-9
3934.23,-3,3,-3,-9
3934.23,-3,1,-6,-8
3934.23,0,5,0,0
3934.23,6,9,7,5
3934.23,8,10,9,8
3934.23,9,7,7,7
3934.23,7,5,3,5
3934.23,4,3,3,5
3934.23,3,1,2,5
3934.23,5,1,2,5
3934.23,4,2,3,4
3934.23,5,2,3,5
3934.23,2,0,0,2
3934.23,2,0,1,3
3934.24,2,1,3,4
3934.24,3,0,1,3
3934.24,1,-2,-2,0
3934.24,0,-6,-4,3
3934.24,4,-3,-2,6
3934.24,6,-1,0,9
3934.24,8,0,2,10
3934.24,10,2,3,11
3934.24,9,3,5,10
3934.24,8,4,3,5
3934.24,5,3,1,1
3934.24,2,2,0,-1
3934.24,2,4,2,0
3934.24,3,7,3,-1
3934.24,2,7,2,-2
3934.24,0,7,2,-5
3934.24,0,10,4,-4
3934.25,0,11,7,-3
3934.25,0,10,7,-4
3934.25,-1,10,7,-2
3934.25,-2,6,5,-3
3934.25,-4,3,4,-1
3934.25,-4,0,2,0
3934.25,-1,0,4,3
3934.25,0,0,3,2
3934.25,0,-1,0,1
3934.25,1,0,-1,0
3934.25,4,2,0,1
3934.25,7,6,2,3
3934.25,7,6,2,3
3934.25,7,5,0,3
3934.25,8,5,0,2
3934.25,8,6,2,4
3934.25,8,5,3,4
3934.25,6,3,2,4
3934.26,5,6,9,10
3934.26,6,3,6,8
3934.26,3,-2,0,2
3934.26,-1,-8,-5,3
3934.26,1,-6,-4,5
3934.26,3,-3,-2,5
3934.26,3,-2,0,7
3934.26,8,1,2,7
3934.26,7,1,1,5
3934.26,5,0,0,2
3934.26,4,1,0,3
3934.26,6,6,4,4
3934.26,7,9,7,4
3934.26,6,10,6,0
3934.26,1,7,4,-3
3934.26,-2,6,3,-6
3934.26,-4,6,5,-4
3934.27,-1,9,7,-3
3934.27,-1,9,8,-3
3934.27,0,8,7,-2
3934.27,-1,5,4,-4
3934.27,-5,0,0,-4
3934.27,-6,-2,0,-1
3934.27,-1,-1,0,0
3934.27,1,0,-2,0
3934.27,3,1,-2,0
3934.27,7,6,-1,1
3934.27,8,6,0,3
3934.27,9,8,4,6
3934.27,10,9,9,10
3934.27,11,9,12,13
3934.27,9,8,13,12
3934.27,5,2,5,5
3934.27,0,-3,-2,0
3934.27,-1,-4,-3,-2
3934.28,-1,-2,-1,0
3934.28,0,-2,-1,2
3934.28,0,-3,-3,1
3934.28,1,-5,-3,5
3934.28,5,-2,-2,6
3934.28,7,0,0,6
3934.28,7,-1,-2,6
3934.28,10,4,3,9
3934.28,12,9,9,11
3934.28,10,9,11,10
3934.28,7,6,9,6
3934.28,2,1,1,1
3934.28,0,2,1,0
3934.28,0,4,0,-5
3934.28,-3,0,-7,-13
3934.28,-3,3,-6,-12
3934.28,0,11,4,-3
3934.29,4,16,11,0
3934.29,3,15,15,3
3934.29,3,12,14,4
3934.29,0,8,10,1
3934.29,-4,0,4,0
3934.29,-5,-4,-3,-4
3934.29,-6,-4,-4,-3
3934.29,-1,-1,-1,0
3934.29,2,2,-1,0
3934.29,4,2,0,2
3934.29,6,7,5,6
3934.29,7,7,8,9
3934.29,7,5,5,7
3934.29,5,3,3,5
3934.29,3,0,0,3
3934.29,4,1,0,3
3934.29,4,2,3,6
3934.29,5,2,2,5
3934.3,5,2,1,4
3934.3,5,2,0,5
3934.3,3,-3,-3,2
3934.3,1,-7,-6,3
3934.3,4,-4,-6,3
3934.3,7,0,-2,7
3934.3,10,2,0,8
3934.3,12,6,4,8
3934.3,11,10,8,9
3934.3,10,9,8,4
3934.3,4,6,4,1
3934.3,0,2,0,-3
3934.3,-1,2,0,-3
3934.3,-1,5,4,-2
3934.3,1,10,9,0
3934.3,1,11,9,0
3934.3,0,8,6,-4
3934.31,-3,5,3,-6
3934.31,-5,3,1,-8
3934.31,-6,3,2,-4
3934.31,-4,2,3,-2
3934.31,-1,2,2,0
3934.31,0,3,3,2
3934.31,2,2,2,1
3934.31,1,1,2,2
3934.31,4,4,4,5
3934.31,5,4,4,5
3934.31,6,5,4,5
3934.31,4,2,2,3
3934.31,4,2,1,4
3934.31,5,4,2,5
3934.31,5,4,2,5
3934.31,5,2,0,2
3934.31,4,0,-1,1
3934.32,3,0,0,1
3934.32,3,1,1,4
3934.32,4,0,1,5
3934.32,3,-4,-1,6
3934.32,4,-3,0,8
3934.32,6,0,0,8
3934.32,8,0,0,9
3934.32,9,2,2,8
3934.32,9,3,2,6
3934.32,8,4,1,3
3934.32,5,5,3,2
3934.32,4,6,6,3
3934.32,4,7,7,3
3934.32,3,9,7,0
3934.32,0,7,5,-3
3934.32,-3,4,0,-9
3934.32,-6,1,-3,-10
3934.32,-5,2,-2,-8
3934.33,-1,5,-2,-8
3934.33,0,8,2,-2
3934.33,3,11,9,1
3934.33,2,9,7,2
3934.33,2,7,9,6
3934.33,4,8,12,8
3934.33,2,3,5,3
3934.33,0,-1,-1,-2
3934.33,-3,-4,-3,-3
3934.33,-2,-2,-1,0
3934.33,0,0,3,5
3934.33,3,3,6,9
3934.33,6,2,4,7
3934.33,7,1,2,5
3934.33,5,2,1,4
3934.33,4,1,1,4
3934.33,5,3,1,4
3934.34,6,4,3,5
3934.34,6,3,1,3
3934.34,3,0,-1,1
3934.34,1,-5,-5,2
3934.34,3,-3,-3,5
3934.34,7,0,0,7
3934.34,7,0,0,8
3934.34,9,3,2,8
3934.34,9,3,1,6
3934.34,8,4,2,5
3934.34,8,7,6,6
3934.34,7,7,8,6
3934.34,4,5,5,1
3934.34,1,5,5,-2
3934.34,-2,3,0,-6
3934.34,-3,4,0,-8
3934.34,-1,8,2,-8
3934.34,-1,9,2,-8
3934.35,-2,8,3,-6
3934.35,-1,9,5,-3
3934.35,0,7,6,0
3934.35,-1,7,10,5
3934.35,0,1,5,2
3934.35,0,-1,0,0
3934.35,0,0,2,2
3934.35,2,1,2,3
3934.35,3,0,0,3
3934.35,3,1,0,3
3934.35,6,3,1,4
3934.35,8,6,3,5
3934.35,8,6,4,6
3934.35,7,5,4,5
3934.35,7,4,2,3
3934.35,4,2,1,2
3934.35,3,1,0,2
3934.36,2,0,0,2
3934.36,3,0,0,3
3934.36,2,-2,-1,4
3934.36,3,-4,-4,5
3934.36,6,-2,-3,5
3934.36,7,0,-1,6
3934.36,7,0,0,8
3934.36,10,4,4,10
3934.36,10,6,6,10
3934.36,9,7,7,6
3934.36,5,5,5,4
3934.36,2,4,7,4
3934.36,0,2,1,-1
3934.36,0,1,0,-5
3934.36,-2,3,0,-8
3934.36,-3,5,0,-9
3934.36,-4,4,0,-8
3934.36,-1,11,9,0
3934.37,2,13,10,0
3934.37,3,11,8,0
3934.37,0,7,4,-2
3934.37,-2,1,0,-2
3934.37,-2,0,0,-1
3934.37,0,2,2,1
3934.37,1,3,4,3
3934.37,2,4,8,7
3934.37,4,4,8,8
3934.37,4,1,3,6
3934.37,3,0,0,3
3934.37,4,1,-1,1
3934.37,3,1,-1,2
3934.37,4,-1,-5,-1
3934.37,4,0,-2,0
3934.37,7,6,3,5
3934.37,10,11,9,10
3934.38,9,8,9,9
3934.38,5,2,5,6
3934.38,1,-4,-1,4
3934.38,1,-6,-4,4
3934.38,2,-5,-4,4
3934.38,2,-4,-2,5
3934.38,5,-2,-1,8
3934.38,8,1,0,5
3934.38,8,2,0,3
3934.38,7,4,0,1
3934.38,4,3,0,0
3934.38,5,6,3,1
3934.38,7,10,7,3
3934.38,7,12,7,0
3934.38,3,12,8,-1
3934.38,0,10,9,-2
3934.38,-2,7,8,-4
3934.39,-3,7,7,-5
3934.39,-6,3,3,-7
3934.39,-7,1,1,-6
3934.39,-7,-1,0,-4
3934.39,-4,-1,0,0
3934.39,1,3,3,2
3934.39,4,4,4,4
3934.39,4,5,4,5
3934.39,5,4,4,6
3934.39,6,5,4,5
3934.39,5,4,4,5
3934.39,5,3,2,3
3934.39,3,0,-1,0
3934.39,2,0,-3,-1
3934.39,2,0,-3,0
3934.39,4,2,0,2
3934.39,7,5,2,5
3934.4,8,6,4,6
3934.4,9,6,4,7
3934.4,8,5,5,8
3934.4,5,-1,1,8
3934.4,4,-4,0,8
3934.4,3,-4,-1,7
3934.4,4,-5,-2,5
3934.4,5,-2,-3,3
3934.4,5,0,-3,2
3934.4,6,3,0,1
3934.4,6,6,2,1
3934.4,6,8,2,1
3934.4,6,9,7,3
3934.4,6,11,9,2
3934.4,2,7,6,-1
3934.4,0,7,6,-3
3934.4,-1,8,6,-3
3934.4,-2,7,6,-5
3934.41,-4,5,2,-6
3934.41,-6,1,0,-8
3934.41,-5,3,1,-5
3934.41,-3,3,2,-1
3934.41,-1,1,1,0
3934.41,1,3,2,3
3934.41,4,4,5,5
3934.41,4,4,4,5
3934.41,5,4,3,4
3934.41,5,6,6,7
3934.41,5,1,0,1
3934.41,2,0,-3,0
3934.41,3,2,0,2
3934.41,5,3,1,3
3934.41,6,4,1,4
3934.41,7,4,4,6
3934.41,6,4,6,7
3934.42,5,4,6,8
3934.42,3,-1,0,2
3934.42,0,-4,-2,4
3934.42,2,-4,0,7
3934.42,3,-4,-2,6
3934.42,5,-2,-1,6
3934.42,5,-1,0,7
3934.42,8,2,2,8
3934.42,8,3,3,6
3934.42,8,6,4,4
3934.42,5,6,5,2
3934.42,2,4,3,0
3934.42,1,3,1,-1
3934.42,2,7,3,-2
3934.42,1,7,3,-4
3934.42,0,8,4,-4
3934.42,0,7,3,-4
3934.42,0,7,2,-4
3934.43,0,8,4,-5
3934.43,-1,7,5,-3
3934.43,-1,8,8,1
3934.43,0,4,6,2
3934.43,0,2,3,0
3934.43,-1,0,3,2
3934.43,0,0,3,2
3934.43,0,0,2,3
3934.43,2,0,1,3
3934.43,4,0,-2,0
3934.43,4,1,-2,0
3934.43,6,4,0,1
3934.43,7,4,-1,0
3934.43,8,7,1,5
3934.43,10,8,5,7
3934.43,9,8,6,7
3934.43,6,6,7,7
3934.44,5,4,9,10
3934.44,3,1,6,6
3934.44,0,-6,-3,2
3934.44,-1,-8,-5,3
3934.44,1,-5,-2,5
3934.44,2,-5,-2,4
3934.44,2,-4,-2,5
3934.44,5,0,0,6
3934.44,7,1,0,4
3934.44,7,3,0,1
3934.44,5,6,3,3
3934.44,7,9,6,3
3934.44,7,10,5,0
3934.44,4,10,6,-1
3934.44,1,9,6,-4
3934.44,-1,7,5,-3
3934.44,0,8,5,-3
3934.44,0,9,6,-3
3934.45,-1,7,4,-5
3934.45,-3,3,0,-6
3934.45,-3,2,0,-4
3934.45,-2,1,0,-1
3934.45,0,3,2,0
3934.45,2,4,4,3
3934.45,3,2,1,2
3934.45,3,3,2,4
3934.45,5,3,3,5
3934.45,6,5,5,7
3934.45,6,4,6,8
3934.45,6,3,6,8
3934.45,4,1,2,4
3934.45,2,-1,0,2
3934.45,2,-1,-2,0
3934.45,2,-1,-5,-1
3934.45,3,2,-3,0
3934.46,5,4,2,4
3934.46,7,6,7,10
3934.46,7,1,6,13
3934.46,6,-2,2,9
3934.46,4,-3,1,7
3934.46,2,-5,-1,6
3934.46,2,-2,0,5
3934.46,4,0,-1,3
3934.46,5,1,-1,1
3934.46,5,4,0,0
3934.46,5,3,-3,-4
3934.46,3,4,0,-3
3934.46,3,9,3,0
3934.46,4,12,7,0
3934.46,7,16,11,1
3934.46,5,15,10,0
3934.46,3,12,7,-3
3934.47,-2,6,2,-7
3934.47,-5,3,0,-7
3934.47,-4,4,0,-6
3934.47,-2,2,2,-2
3934.47,0,4,3,0
3934.47,1,3,5,3
3934.47,2,5,8,6
3934.47,3,6,11,10
3934.47,3,4,12,11
3934.47,1,-2,1,3
3934.47,-1,-5,-3,0
3934.47,0,-2,-3,0
3934.47,0,-1,-1,2
3934.47,3,2,1,4
3934.47,4,1,2,4
3934.47,4,2,2,5
3934.47,6,2,0,2
3934.47,5,1,-3,-1
3934.48,4,1,-3,0
3934.48,4,0,-4,1
3934.48,6,0,-1,7
3934.48,10,3,3,11
3934.48,12,5,6,13
3934.48,11,4,5,12
3934.48,10,5,8,13
3934.48,8,2,4,7
3934.48,4,0,0,1
3934.48,0,-1,-2,-2
3934.48,0,0,-1,-2
3934.48,0,2,1,-1
3934.48,1,7,5,0
3934.48,2,9,6,-1
3934.48,1,11,7,-2
3934.48,-1,8,5,-4
3934.48,-2,6,3,-6
3934.49,-4,5,4,-4
3934.49,-3,4,2,-3
3934.49,0,5,1,-5
3934.49,0,4,2,-1
3934.49,0,5,5,2
3934.49,3,5,5,3
3934.49,1,0,2,3
3934.49,3,4,5,6
3934.49,6,5,6,5
3934.49,4,2,2,3
3934.49,2,0,0,2
3934.49,1,0,0,2
3934.49,3,0,0,3
3934.49,5,2,1,5
3934.49,6,3,1,4
3934.49,5,3,2,5
3934.5,6,4,3,5
3934.5,6,3,1,3
3934.5,4,1,0,3
3934.5,2,-3,-2,4
3934.5,3,-4,-2,6
3934.5,6,-1,-1,7
3934.5,7,0,0,7
3934.5,7,0,0,6
3934.5,7,2,1,7
3934.5,7,3,4,6
3934.5,7,4,4,5
3934.5,5,5,3,2
3934.5,3,4,0,-1
3934.5,2,5,2,-1
3934.5,2,9,6,0
3934.5,2,9,6,-2
3934.5,0,8,4,-5
3934.5,-1,7,3,-5
3934.5,-1,8,5,-4
3934.51,-1,7,6,-3
3934.51,-2,7,7,-1
3934.51,-2,3,4,-2
3934.51,-3,0,0,-2
3934.51,-1,1,1,0
3934.51,0,3,3,2
3934.51,2,5,6,4
3934.51,3,6,8,6
3934.51,3,5,7,6
3934.51,4,4,3,2
3934.51,1,0,0,0
3934.51,0,-1,-1,0
3934.51,0,-2,0,4
3934.51,2,-4,-3,4
3934.51,4,-4,-6,2
3934.51,7,3,0,3
3934.51,9,5,2,4
3934.52,8,6,2,4
3934.52,8,6,6,9
3934.52,8,3,3,10
3934.52,8,-1,-2,5
3934.52,5,-3,-5,2
3934.52,5,-2,-4,5
3934.52,7,0,-1,6
3934.52,9,3,0,6
3934.52,10,6,1,5
3934.52,8,6,1,1
3934.52,5,6,2,1
3934.52,3,7,6,3
3934.52,5,9,8,2
3934.52,1,7,7,0
3934.52,-2,5,3,-5
3934.52,-4,3,0,-8
3934.52,-3,7,2,-6
3934.52,-2,9,6,-4
3934.53,-2,7,6,-3
3934.53,-2,4,2,-4
3934.53,-3,3,4,0
3934.53,0,4,6,3
3934.53,0,5,10,7
3934.53,1,3,8,5
3934.53,0,0,2,2
3934.53,0,1,4,4
3934.53,1,0,3,3
3934.53,0,-2,0,0
3934.53,0,-2,-1,1
3934.53,2,1,1,5
3934.53,6,4,2,4
3934.53,6,2,0,2
3934.53,5,2,-1,2
3934.53,6,4,1,3
3934.53,6,5,4,6
3934.54,7,6,6,8
3934.54,6,3,4,7
3934.54,3,-4,-1,6
3934.54,2,-6,-3,5
3934.54,5,-2,0,7
3934.54,4,-2,0,8
3934.54,7,0,-1,4
3934.54,6,1,-2,2
3934.54,7,4,0,2
3934.54,8,9,3,2
3934.54,7,9,3,0
3934.54,5,9,4,0
3934.54,5,11,6,0
3934.54,2,8,5,-2
3934.54,0,9,5,-3
3934.54,0,8,5,-4
3934.54,-2,7,5,-5
3934.54,-3,6,4,-5
3934.55,-3,5,4,-3
3934.55,-2,4,2,-3
3934.55,-2,0,-1,-5
3934.55,-1,2,0,-2
3934.55,0,3,4,3
3934.55,3,4,4,5
3934.55,4,3,4,4
3934.55,3,2,1,3
3934.55,3,1,0,3
3934.55,4,1,0,5
3934.55,5,3,4,6
3934.55,7,5,5,8
3934.55,7,5,4,7
3934.55,6,3,2,3
3934.55,4,2,0,2
3934.55,3,1,-1,1
3934.55,3,1,-1,1
3934.56,3,1,0,2
3934.56,3,-2,-2,4
3934.56,4,-2,-2,6
3934.56,5,-1,-1,6
3934.56,7,0,0,7
3934.56,7,0,-1,8
3934.56,10,3,3,8
3934.56,8,4,4,7
3934.56,6,5,7,7
3934.56,4,5,8,5
3934.56,2,3,4,1
3934.56,0,2,4,0
3934.56,1,6,5,-1
3934.56,0,8,8,-1
3934.56,-2,8,9,-1
3934.56,-4,3,3,-4
3934.56,-5,0,-3,-10
3934.56,-6,0,-3,-9
3934.57,-3,4,-2,-8
3934.57,0,4,-4,-9
3934.57,1,5,-2,-2
3934.57,8,12,6,5
3934.57,11,13,9,8
3934.57,9,11,10,8
3934.57,7,6,9,9
3934.57,6,5,7,7
3934.57,3,1,2,3
3934.57,0,-1,0,0
3934.57,0,-2,-1,0
3934.57,0,-2,-1,2
3934.57,2,-2,-2,1
3934.57,4,0,-1,3
3934.57,7,3,1,4
3934.57,6,5,2,4
3934.57,5,4,3,5
3934.58,5,3,3,5
3934.58,2,-1,0,5
3934.58,2,-2,1,8
3934.58,4,-1,4,10
3934.58,3,-5,-2,5
3934.58,3,-3,-1,6
3934.58,8,2,1,7
3934.58,8,3,0,3
3934.58,6,4,0,1
3934.58,4,5,2,1
3934.58,5,6,4,1
3934.58,6,9,6,1
3934.58,5,9,4,-2
3934.58,1,10,6,-3
3934.58,-1,9,8,-2
3934.58,0,10,12,1
3934.58,-1,8,9,0
3934.59,-4,2,3,-5
3934.59,-8,-1,0,-7
3934.59,-7,-2,-2,-5
3934.59,-5,-2,-2,-3
3934.59,-1,1,0,-1
3934.59,2,5,3,2
3934.59,5,5,5,5
3934.59,5,4,2,3
3934.59,6,5,1,4
3934.59,8,6,3,5
3934.59,8,6,4,6
3934.59,6,5,4,5
3934.59,4,3,5,6
3934.59,5,3,3,6
3934.59,5,2,2,5
3934.59,5,0,-1,0
3934.59,2,0,-4,-2
3934.59,2,0,-3,0
3934.6,3,2,0,3
3934.6,4,-2,-2,5
3934.6,5,-2,-1,6
3934.6,7,0,0,8
3934.6,7,0,1,9
3934.6,8,4,5,9
3934.6,8,3,4,7
3934.6,5,2,2,3
3934.6,2,1,2,2
3934.6,2,1,0,0
3934.6,0,1,0,0
3934.6,2,5,2,0
3934.6,2,6,2,-1
3934.6,4,9,5,0
3934.6,5,14,8,-1
3934.6,3,12,7,-2
3934.6,0,9,6,-5
3934.61,-3,6,4,-4
3934.61,-2,6,5,-2
3934.61,-2,2,2,-2
3934.61,-3,-2,-3,-3
3934.61,-2,-2,-2,-2
3934.61,0,1,0,2
3934.61,5,4,2,3
3934.61,6,5,4,5
3934.61,6,6,5,6
3934.61,6,5,6,6
3934.61,5,5,9,10
3934.61,5,2,4,5
3934.61,3,0,0,2
3934.61,1,-1,-2,0
3934.61,0,-2,-2,0
