Program Time [s],data 0,data 1,data 2,data 3
3971.78,7,11,8,2
3971.78,4,13,13,3
3971.78,3,12,12,0
3971.78,-2,8,10,-2
3971.78,-6,3,4,-6
3971.78,-10,-1,-1,-11
3971.78,-10,0,-1,-9
3971.78,-8,1,3,-4
3971.78,-5,0,1,-1
3971.78,-3,0,0,0
3971.78,1,1,0,1
3971.78,3,2,0,2
3971.78,6,4,1,3
3971.78,6,5,3,5
3971.78,7,7,6,7
3971.78,8,7,8,9
3971.79,8,6,6,7
3971.79,5,2,2,3
3971.79,2,0,0,2
3971.79,3,1,1,3
3971.79,4,1,1,3
3971.79,3,2,1,2
3971.79,4,2,0,1
3971.79,2,0,0,2
3971.79,1,-1,-1,3
3971.79,3,-4,-2,5
3971.79,5,-2,-2,7
3971.79,6,-1,-1,7
3971.79,7,0,0,9
3971.79,11,5,6,11
3971.79,10,5,4,8
3971.79,8,5,3,4
3971.79,4,4,0,0
3971.8,2,2,0,-1
3971.8,1,4,1,0
3971.8,3,8,5,-2
3971.8,2,9,5,-3
3971.8,0,8,4,-5
3971.8,-1,8,4,-5
3971.8,0,8,5,-4
3971.8,-1,8,4,-5
3971.8,-2,5,3,-3
3971.8,-1,6,5,0
3971.8,-2,3,4,0
3971.8,0,1,2,0
3971.8,0,1,2,2
3971.8,2,3,4,4
3971.8,3,2,3,4
3971.8,4,4,5,5
3971.8,4,1,1,3
3971.8,2,0,0,2
3971.81,2,0,0,3
3971.81,3,2,3,6
3971.81,5,3,2,4
3971.81,5,3,1,3
3971.81,4,1,0,2
3971.81,4,2,0,3
3971.81,5,3,0,3
3971.81,5,2,1,5
3971.81,3,0,0,6
3971.81,5,-2,0,7
3971.81,6,-1,-2,6
3971.81,5,-1,0,7
3971.81,6,0,1,7
3971.81,8,1,0,5
3971.81,7,3,0,3
3971.81,7,5,2,2
3971.81,6,6,3,2
3971.82,5,8,7,3
3971.82,3,9,9,3
3971.82,2,8,8,0
3971.82,0,6,4,-4
3971.82,-4,4,3,-6
3971.82,-5,4,2,-7
3971.82,-4,6,3,-6
3971.82,-4,5,2,-5
3971.82,-3,3,2,-4
3971.82,-1,3,2,-2
3971.82,0,2,2,0
3971.82,1,3,2,1
3971.82,2,3,2,3
3971.82,4,5,4,4
3971.82,5,4,4,6
3971.82,6,5,4,5
3971.82,5,3,3,5
3971.82,4,2,2,4
3971.83,5,3,2,4
3971.83,4,2,1,3
3971.83,4,2,1,2
3971.83,4,1,0,2
3971.83,4,2,0,3
3971.83,5,3,2,4
3971.83,4,1,1,3
3971.83,3,0,0,3
3971.83,1,-4,-2,5
3971.83,4,-3,-1,7
3971.83,6,0,0,7
3971.83,7,-1,-1,7
3971.83,9,0,0,5
3971.83,9,1,-1,3
3971.83,8,5,2,5
3971.83,8,9,8,6
3971.83,7,10,11,7
3971.84,5,6,8,3
3971.84,2,6,7,0
3971.84,-1,4,3,-5
3971.84,-3,3,0,-8
3971.84,-5,3,-1,-11
3971.84,-4,5,0,-9
3971.84,-2,7,2,-7
3971.84,-1,6,1,-5
3971.84,0,8,3,-3
3971.84,0,6,3,0
3971.84,3,7,7,5
3971.84,5,8,11,9
3971.84,4,4,5,4
3971.84,2,1,1,2
3971.84,2,1,1,2
3971.84,2,1,0,1
3971.84,2,1,0,3
3971.85,4,2,1,3
3971.85,5,3,3,6
3971.85,5,3,4,5
3971.85,5,2,3,3
3971.85,3,0,0,2
3971.85,3,0,-2,0
3971.85,3,2,0,3
3971.85,5,3,2,4
3971.85,4,0,0,5
3971.85,3,-3,-1,6
3971.85,5,-2,0,8
3971.85,7,0,2,10
3971.85,7,0,2,9
3971.85,7,0,2,7
3971.85,6,1,1,5
3971.85,5,2,1,2
3971.85,4,4,1,1
3971.85,4,4,1,0
3971.86,2,5,1,0
3971.86,3,8,4,0
3971.86,2,9,5,-2
3971.86,2,10,6,-3
3971.86,0,9,5,-4
3971.86,-1,8,6,-4
3971.86,-2,6,5,-4
3971.86,-2,5,4,-3
3971.86,-2,4,2,-3
3971.86,-2,1,0,-2
3971.86,-1,1,2,0
3971.86,1,2,3,4
3971.86,4,4,3,4
3971.86,4,3,3,4
3971.86,4,4,5,5
3971.86,3,3,6,6
3971.86,4,2,4,5
3971.87,4,1,0,2
3971.87,2,0,0,0
3971.87,2,0,-1,1
3971.87,3,2,2,4
3971.87,5,4,4,6
3971.87,6,4,4,5
3971.87,4,2,1,3
3971.87,4,1,0,2
3971.87,1,-3,-3,3
3971.87,3,-4,-4,4
3971.87,5,-1,-1,6
3971.87,8,0,0,7
3971.87,8,0,0,7
3971.87,9,3,2,7
3971.87,9,4,2,6
3971.87,8,5,2,4
3971.87,7,6,3,3
3971.88,6,7,3,1
3971.88,4,7,3,0
3971.88,2,7,4,-1
3971.88,1,9,6,-1
3971.88,0,9,7,-2
3971.88,-1,8,7,-2
3971.88,-3,8,8,-3
3971.88,-5,4,4,-5
3971.88,-7,1,3,-5
3971.88,-5,2,4,-2
3971.88,-4,0,0,-3
3971.88,-2,0,0,-1
3971.88,0,1,0,0
3971.88,3,3,2,3
3971.88,5,5,3,6
3971.88,7,7,4,6
3971.88,7,6,4,5
3971.88,5,3,2,4
3971.89,6,3,2,4
3971.89,5,2,1,2
3971.89,4,2,0,2
3971.89,3,1,0,3
3971.89,4,2,1,2
3971.89,4,2,0,3
3971.89,5,3,1,3
3971.89,4,2,0,3
3971.89,3,-2,-2,4
3971.89,4,-2,-2,5
3971.89,6,-1,-1,7
3971.89,7,-1,-1,6
3971.89,7,0,0,8
3971.89,10,4,2,7
3971.89,8,4,3,6
3971.89,8,6,3,4
3971.89,5,5,4,2
3971.9,4,7,6,4
3971.9,3,8,9,4
3971.9,1,7,8,0
3971.9,-2,5,8,-1
3971.9,-5,4,6,-3
3971.9,-6,1,0,-10
3971.9,-7,0,-6,-14
3971.9,-7,0,-7,-14
3971.9,-2,6,0,-6
3971.9,1,11,8,3
3971.9,5,11,12,10
3971.9,8,10,10,8
3971.9,6,6,6,4
3971.9,3,2,2,1
3971.9,1,0,0,1
3971.9,0,0,0,3
3971.9,3,3,4,7
3971.9,5,3,4,5
3971.91,5,3,2,3
3971.91,3,0,0,3
3971.91,2,0,0,2
3971.91,3,0,0,2
3971.91,4,2,1,4
3971.91,5,3,0,2
3971.91,5,2,0,2
3971.91,4,2,0,3
3971.91,3,-2,-1,6
3971.91,5,0,0,8
3971.91,7,0,-1,5
3971.91,6,-3,-3,4
3971.91,7,1,1,7
3971.91,9,5,4,8
3971.91,8,5,5,7
3971.91,6,5,3,3
3971.91,3,3,3,1
3971.92,2,4,3,1
3971.92,2,6,4,0
3971.92,1,7,5,-2
3971.92,0,9,6,-2
3971.92,-1,8,5,-4
3971.92,-2,7,5,-4
3971.92,-3,5,3,-5
3971.92,-4,4,1,-6
3971.92,-3,4,2,-4
3971.92,-2,3,2,-1
3971.92,0,2,2,0
3971.92,1,2,2,1
3971.92,2,3,1,2
3971.92,4,3,1,2
3971.92,5,4,3,5
3971.92,7,6,5,6
3971.92,7,6,6,7
3971.93,6,5,6,6
3971.93,5,4,6,7
3971.93,3,2,4,5
3971.93,2,0,2,2
3971.93,1,-2,-1,0
3971.93,0,-1,-3,0
3971.93,1,0,-1,0
3971.93,3,1,0,2
3971.93,3,0,0,3
3971.93,4,-3,-2,6
3971.93,5,-2,-1,8
3971.93,8,0,0,8
3971.93,9,0,0,8
3971.93,10,3,2,9
3971.93,9,4,4,7
3971.93,9,7,4,5
3971.93,7,6,4,2
3971.93,3,5,3,0
3971.94,3,4,1,-1
3971.94,2,7,3,-2
3971.94,0,6,3,-4
3971.94,-1,7,5,-4
3971.94,-1,7,5,-4
3971.94,-1,9,5,-4
3971.94,-2,6,4,-4
3971.94,-1,6,4,-3
3971.94,-2,4,4,-2
3971.94,-3,1,1,-2
3971.94,0,1,2,0
3971.94,0,2,2,3
3971.94,2,4,3,3
3971.94,3,3,3,4
3971.94,4,3,4,5
3971.94,5,3,4,6
3971.94,4,1,2,3
3971.95,3,1,2,5
3971.95,4,2,2,5
3971.95,4,2,1,4
3971.95,4,2,0,1
3971.95,2,1,0,1
3971.95,3,1,0,2
3971.95,5,3,0,2
3971.95,5,4,1,4
3971.95,4,-1,-1,5
3971.95,4,-1,-1,5
3971.95,7,0,0,6
3971.95,7,0,0,7
3971.95,7,0,0,7
3971.95,9,3,2,6
3971.95,9,4,2,5
3971.95,7,5,2,3
3971.95,5,5,2,2
3971.95,5,5,3,1
3971.96,4,6,2,0
3971.96,4,8,3,-2
3971.96,2,10,7,0
3971.96,0,9,7,-3
3971.96,-1,7,6,-4
3971.96,-3,6,6,-4
3971.96,-4,6,9,0
3971.96,-4,4,8,0
3971.96,-5,1,4,-1
3971.96,-6,-3,0,-2
3971.96,-4,-3,0,0
3971.96,-1,0,2,2
3971.96,0,0,1,2
3971.96,3,2,2,4
3971.96,5,4,5,7
3971.96,7,4,4,6
3971.96,6,2,0,2
3971.97,5,2,-1,1
3971.97,6,4,-1,1
3971.97,7,6,0,3
3971.97,9,7,2,5
3971.97,9,6,3,4
3971.97,6,5,1,3
3971.97,5,3,1,4
3971.97,4,0,0,2
3971.97,1,-3,-2,4
3971.97,3,-2,-1,6
3971.97,5,-1,-1,6
3971.97,5,-2,-1,6
3971.97,8,0,0,7
3971.97,9,3,2,7
3971.97,8,4,2,5
3971.97,8,7,5,4
3971.97,4,5,4,3
3971.97,3,6,6,2
3971.98,2,6,7,1
3971.98,0,6,6,-1
3971.98,-2,4,3,-5
3971.98,-4,2,0,-9
3971.98,-4,4,0,-9
3971.98,-2,6,2,-6
3971.98,0,8,4,-3
3971.98,0,8,7,0
3971.98,0,6,6,2
3971.98,2,5,4,2
3971.98,3,4,5,3
3971.98,2,4,6,5
3971.98,1,2,6,5
3971.98,1,0,2,2
3971.98,0,-1,0,1
3971.98,1,0,1,2
3971.98,1,-1,0,3
3971.99,2,0,-1,1
3971.99,3,3,1,5
3971.99,7,4,3,5
3971.99,6,3,0,2
3971.99,5,4,1,3
3971.99,6,5,3,5
3971.99,6,5,2,4
3971.99,5,1,0,4
3971.99,3,-3,-4,3
3971.99,3,-4,-4,4
3971.99,5,-1,-1,5
3971.99,5,-2,-2,8
3971.99,10,3,3,9
3971.99,11,5,4,8
3971.99,10,7,4,5
3971.99,6,6,4,2
3971.99,4,5,4,2
3972,3,5,3,0
3972,2,5,2,-1
3972,0,5,3,-3
3972,0,7,4,-3
3972,0,9,7,-2
3972,0,8,5,-4
3972,-2,4,-1,-9
3972,-4,3,-1,-8
3972,-2,6,5,-1
3972,0,5,6,1
3972,0,6,7,4
3972,3,7,9,6
3972,1,2,5,3
3972,0,0,1,3
3972,0,0,0,2
3972,1,1,2,3
3972,2,1,1,3
3972,4,1,0,2
3972.01,3,1,0,1
3972.01,4,1,0,3
3972.01,5,3,1,5
3972.01,7,4,2,5
3972.01,6,4,3,5
3972.01,6,4,3,6
3972.01,5,2,2,5
3972.01,2,-1,0,5
3972.01,3,-4,0,7
3972.01,5,-2,0,8
3972.01,5,-2,-2,6
3972.01,5,-3,-4,4
3972.01,5,0,-3,3
3972.01,8,3,0,4
3972.01,10,8,3,3
3972.01,8,9,5,3
3972.01,7,7,4,2
3972.02,5,8,5,1
3972.02,4,8,5,0
3972.02,2,9,6,-2
3972.02,0,9,4,-5
3972.02,-1,7,3,-6
3972.02,-3,5,0,-8
3972.02,-3,6,2,-5
3972.02,-2,6,3,-4
3972.02,-2,8,9,0
3972.02,-1,5,10,5
3972.02,0,1,5,3
3972.02,-1,-1,1,1
3972.02,-1,-1,1,0
3972.02,0,-1,0,2
3972.02,0,0,0,1
3972.02,2,1,2,4
3972.02,4,3,4,6
3972.02,6,4,4,6
3972.03,6,2,0,2
3972.03,5,2,-1,1
3972.03,6,3,-1,1
3972.03,7,5,0,2
3972.03,8,7,3,4
3972.03,7,7,5,6
3972.03,6,4,3,6
3972.03,4,-1,0,6
3972.03,3,-4,-3,4
3972.03,3,-4,-3,4
3972.03,4,-3,-4,4
3972.03,6,-1,-3,5
3972.03,8,2,0,5
3972.03,9,6,3,6
3972.03,10,8,5,5
3972.03,7,7,5,3
3972.03,4,6,5,2
3972.04,4,8,8,2
3972.04,2,7,7,0
3972.04,0,5,4,-4
3972.04,-3,5,4,-5
3972.04,-4,5,3,-6
3972.04,-4,5,3,-6
3972.04,-4,4,4,-5
3972.04,-3,3,2,-3
3972.04,-3,3,3,0
3972.04,0,3,4,1
3972.04,0,2,2,2
3972.04,1,3,3,3
3972.04,2,3,3,3
3972.04,4,4,3,4
3972.04,5,3,2,4
3972.04,5,3,1,3
3972.04,4,2,2,4
3972.05,5,2,1,3
3972.05,4,2,2,5
3972.05,6,5,5,6
3972.05,5,3,2,4
3972.05,3,1,0,2
3972.05,3,1,0,2
3972.05,3,2,1,3
3972.05,3,0,0,2
3972.05,1,-4,-3,4
3972.05,4,-2,-2,6
3972.05,7,0,0,7
3972.05,6,-1,-1,8
3972.05,9,2,2,10
3972.05,10,3,3,7
3972.05,8,5,4,6
3972.05,7,6,5,4
3972.05,4,4,3,1
3972.05,2,2,1,0
3972.06,2,5,0,-3
3972.06,1,7,1,-5
3972.06,1,9,3,-5
3972.06,0,10,5,-4
3972.06,0,11,5,-4
3972.06,-1,9,6,-3
3972.06,-1,8,8,0
3972.06,-1,7,9,0
3972.06,-3,1,6,0
3972.06,-3,0,1,0
3972.06,-2,-1,1,0
3972.06,0,0,0,1
3972.06,0,0,0,2
3972.06,2,1,0,3
3972.06,5,4,2,5
3972.06,7,5,3,4
3972.06,6,4,1,2
3972.07,4,2,0,2
3972.07,4,2,1,3
3972.07,4,4,5,6
3972.07,6,4,6,7
3972.07,5,4,4,6
3972.07,3,2,3,5
3972.07,3,1,1,3
3972.07,1,-4,-4,1
3972.07,0,-8,-7,1
3972.07,2,-5,-8,2
3972.07,6,0,-2,6
3972.07,9,1,1,9
3972.07,12,5,4,11
3972.07,11,6,5,8
3972.07,10,6,4,6
3972.07,7,5,2,2
3972.07,3,4,1,0
3972.07,3,5,2,0
3972.08,2,8,6,0
3972.08,1,9,8,0
3972.08,0,9,9,-1
3972.08,-2,7,7,-2
3972.08,-4,5,6,-4
3972.08,-5,3,4,-4
3972.08,-5,1,0,-6
3972.08,-5,0,-3,-7
3972.08,-4,-1,-4,-5
3972.08,0,1,-2,-1
3972.08,4,4,2,3
3972.08,7,8,8,7
3972.08,7,9,13,11
3972.08,8,8,12,11
3972.08,6,4,5,4
3972.08,0,-1,0,0
3972.08,-1,-3,-5,-2
3972.09,0,-1,-4,0
3972.09,3,1,0,1
3972.09,6,4,1,4
3972.09,7,4,2,5
3972.09,7,6,3,5
3972.09,8,5,3,3
3972.09,5,3,1,2
3972.09,2,-1,-2,3
3972.09,3,-3,-2,6
3972.09,5,0,1,9
3972.09,7,0,1,9
3972.09,7,0,0,8
3972.09,7,1,0,6
3972.09,6,1,0,3
3972.09,6,2,0,2
3972.09,4,4,1,2
3972.09,4,6,4,3
3972.09,5,9,8,3
3972.1,4,10,6,0
3972.1,1,8,5,-3
3972.1,0,6,0,-8
3972.1,-3,4,-1,-10
3972.1,-1,8,1,-7
3972.1,0,7,2,-5
3972.1,0,6,2,-4
3972.1,0,6,4,-1
3972.1,1,5,5,2
3972.1,2,8,12,9
3972.1,4,7,15,10
3972.1,1,3,13,9
3972.1,0,-1,5,4
3972.1,-2,-5,-1,0
3972.1,-3,-5,-5,-2
3972.1,-3,-6,-5,-2
3972.1,-1,-2,-2,0
3972.11,3,1,0,3
3972.11,8,5,1,4
3972.11,9,7,2,4
3972.11,9,7,3,5
3972.11,8,6,4,5
3972.11,7,5,3,5
3972.11,5,2,1,5
3972.11,4,-3,-2,4
3972.11,3,-3,-2,5
3972.11,5,-1,0,8
3972.11,7,0,1,8
3972.11,8,1,0,7
3972.11,8,0,0,5
3972.11,7,4,2,4
3972.11,6,5,3,3
3972.11,5,5,3,2
3972.11,3,5,4,1
3972.12,3,7,5,0
3972.12,1,6,3,-3
3972.12,-1,7,5,-4
3972.12,-2,7,5,-4
3972.12,-2,7,6,-3
3972.12,-2,7,4,-5
3972.12,-3,5,1,-6
3972.12,-3,3,1,-5
3972.12,-2,3,2,-1
3972.12,0,3,2,1
3972.12,2,4,3,3
3972.12,2,3,3,2
3972.12,3,2,3,4
3972.12,4,4,4,5
3972.12,6,4,3,5
3972.12,5,4,2,4
3972.12,5,3,2,4
3972.12,3,1,2,4
3972.13,3,1,2,4
3972.13,4,2,1,3
3972.13,4,2,1,3
3972.13,5,2,1,2
3972.13,3,1,0,2
3972.13,3,1,0,2
3972.13,3,0,0,3
3972.13,3,-2,-1,5
3972.13,5,-1,0,7
3972.13,7,0,2,9
3972.13,6,0,2,10
3972.13,8,1,3,8
3972.13,7,1,1,5
3972.13,5,0,0,2
3972.13,4,2,0,0
3972.13,3,3,0,-2
3972.13,3,4,-2,-3
3972.14,4,8,0,-2
3972.14,5,12,6,-1
3972.14,5,14,9,0
3972.14,3,14,12,0
3972.14,0,10,10,-1
3972.14,-2,5,5,-4
3972.14,-5,3,1,-6
3972.14,-6,2,1,-6
3972.14,-6,-1,1,-2
3972.14,-3,0,4,2
3972.14,0,1,5,4
3972.14,1,3,5,5
3972.14,2,2,5,6
3972.14,2,1,3,4
3972.14,2,0,0,2
3972.14,2,1,0,1
3972.14,4,2,0,1
3972.15,5,2,-1,1
3972.15,5,5,2,4
3972.15,8,6,4,6
3972.15,8,6,5,6
3972.15,7,5,2,4
3972.15,4,2,0,0
3972.15,2,0,-3,0
3972.15,2,-2,-4,1
3972.15,4,-2,-2,6
3972.15,7,1,1,10
3972.15,9,1,4,10
3972.15,7,0,4,11
3972.15,7,1,4,9
3972.15,6,1,5,9
3972.15,5,2,5,5
3972.15,2,1,3,1
3972.15,0,0,3,0
3972.15,0,0,0,-2
3972.16,0,2,-2,-6
3972.16,0,4,-1,-8
3972.16,0,9,3,-4
3972.16,2,9,2,-5
3972.16,2,13,7,-2
3972.16,2,11,5,-2
3972.16,2,10,6,-1
3972.16,0,7,5,-1
3972.16,0,3,2,0
3972.16,0,3,5,2
3972.16,1,5,8,5
3972.16,2,3,5,3
3972.16,0,0,1,1
3972.16,0,-1,0,0
3972.16,0,-1,-2,0
3972.16,1,0,0,2
3972.16,4,3,2,5
3972.17,7,5,3,5
3972.17,7,4,2,5
3972.17,6,4,0,2
3972.17,5,3,0,3
3972.17,6,5,3,4
3972.17,6,5,5,7
3972.17,6,3,4,6
3972.17,1,-3,0,4
3972.17,1,-7,-3,4
3972.17,1,-5,-3,4
3972.17,3,-4,-2,6
3972.17,6,-1,0,7
3972.17,9,1,-1,5
3972.17,8,4,0,4
3972.17,8,7,4,5
3972.17,7,8,8,6
3972.17,6,8,8,5
3972.17,5,7,7,2
3972.18,2,8,7,0
3972.18,0,6,4,-4
3972.18,-4,3,1,-8
3972.18,-5,1,-1,-8
3972.18,-3,5,2,-5
3972.18,-2,6,3,-4
3972.18,-1,6,3,-3
3972.18,-1,4,2,-1
3972.18,0,4,2,1
3972.18,2,4,2,2
3972.18,2,5,4,3
3972.18,2,4,5,5
3972.18,3,3,5,6
3972.18,4,4,7,8
3972.18,6,4,4,5
3972.18,3,0,1,3
3972.18,3,0,-1,1
3972.19,2,0,-2,1
3972.19,4,1,-2,0
3972.19,4,2,-1,0
3972.19,5,4,1,4
3972.19,7,6,3,4
3972.19,6,5,3,4
3972.19,5,2,0,4
3972.19,4,-2,-2,3
3972.19,4,-3,-4,5
3972.19,6,-2,-2,6
3972.19,6,0,0,9
3972.19,10,4,5,11
3972.19,10,5,6,9
3972.19,7,4,5,6
3972.19,3,2,4,3
3972.19,0,1,1,0
3972.19,0,2,2,0
3972.19,1,5,3,-1
3972.2,0,7,5,-3
3972.2,-1,7,5,-3
3972.2,-2,6,4,-4
3972.2,-1,8,6,-4
3972.2,-1,7,4,-5
3972.2,-2,5,3,-5
3972.2,-3,5,4,-3
3972.2,-2,2,3,-1
3972.2,-1,2,3,1
3972.2,1,2,3,2
3972.2,2,2,3,2
3972.2,3,2,3,4
3972.2,4,3,3,5
3972.2,5,4,3,5
3972.2,6,4,3,4
3972.2,4,3,3,5
3972.2,3,1,3,5
3972.21,4,1,1,3
3972.21,4,1,0,3
3972.21,4,1,0,3
3972.21,4,1,0,2
3972.21,3,0,-2,1
3972.21,4,1,-1,2
3972.21,5,1,0,3
3972.21,5,0,-1,6
3972.21,7,0,0,8
3972.21,9,1,0,8
3972.21,8,0,-1,6
3972.21,8,1,-1,4
3972.21,7,3,0,3
3972.21,7,4,0,3
3972.21,8,7,5,4
3972.21,7,10,9,7
3972.21,5,7,6,3
3972.22,2,5,4,-1
3972.22,0,7,7,-1
3972.22,-1,8,9,-1
3972.22,-3,5,6,-3
3972.22,-5,5,7,-3
3972.22,-7,4,9,-1
3972.22,-7,1,8,-1
3972.22,-7,0,5,-2
3972.22,-8,-4,-1,-4
3972.22,-6,-6,-8,-8
3972.22,-3,-3,-9,-8
3972.22,2,3,-3,0
3972.22,8,10,4,5
3972.22,12,12,8,10
3972.22,13,11,8,9
3972.22,11,8,4,5
3972.22,8,5,2,4
3972.22,6,3,1,4
3972.23,6,5,5,7
3972.23,8,5,5,7
3972.23,5,2,0,3
3972.23,3,0,-3,0
3972.23,1,-1,-3,-2
3972.23,1,0,-1,1
3972.23,1,-2,-1,3
3972.23,2,-3,0,7
3972.23,6,0,0,9
3972.23,7,0,0,8
3972.23,7,0,0,8
3972.23,8,2,1,7
3972.23,8,4,3,6
3972.23,7,4,2,4
3972.23,5,4,1,1
3972.23,3,3,0,0
3972.23,3,5,4,0
3972.24,4,9,7,0
3972.24,3,10,8,0
3972.24,2,10,7,-2
3972.24,-2,7,9,-2
3972.24,-3,8,10,-2
3972.24,-4,6,7,-4
3972.24,-6,2,3,-5
3972.24,-8,0,0,-6
3972.24,-7,-2,-1,-4
3972.24,-3,0,0,0
3972.24,0,1,1,1
3972.24,2,2,3,4
3972.24,6,4,3,4
3972.24,6,5,3,4
3972.24,6,4,3,5
3972.24,6,4,3,5
3972.24,7,4,2,5
3972.24,7,3,1,3
3972.25,6,4,2,4
3972.25,4,2,1,3
3972.25,4,3,3,4
3972.25,5,3,3,5
3972.25,4,3,3,5
3972.25,2,0,0,2
3972.25,0,-6,-3,3
3972.25,0,-5,-2,5
3972.25,4,-3,-3,6
3972.25,6,-2,-3,5
3972.25,8,0,-3,4
3972.25,10,4,2,7
3972.25,10,8,6,7
3972.25,9,9,7,5
3972.25,6,6,4,2
3972.25,4,6,3,0
3972.25,2,5,3,-2
3972.26,0,5,3,-3
3972.26,0,6,4,-3
3972.26,0,8,6,-3
3972.26,-1,8,5,-4
3972.26,-2,6,3,-5
3972.26,-3,4,3,-5
3972.26,-3,4,4,-2
3972.26,-1,4,4,0
3972.26,0,2,3,1
3972.26,1,2,2,1
3972.26,2,3,1,1
3972.26,2,2,2,2
3972.26,3,4,4,4
3972.26,5,4,4,4
3972.26,4,3,2,2
3972.26,3,2,0,2
3972.26,3,0,0,3
3972.26,4,2,1,4
3972.27,6,4,3,6
3972.27,6,5,3,5
3972.27,6,3,2,4
3972.27,4,2,1,3
3972.27,4,2,1,4
3972.27,3,0,0,3
3972.27,1,-6,-5,2
3972.27,3,-5,-5,3
3972.27,6,-1,-3,5
3972.27,8,0,0,8
3972.27,12,5,3,9
3972.27,11,6,5,9
3972.27,9,7,6,7
3972.27,6,7,9,7
3972.27,4,4,7,4
3972.27,1,2,3,0
3972.27,0,4,4,-2
3972.28,-2,3,1,-5
3972.28,-4,4,3,-5
3972.28,-3,6,2,-6
3972.28,-2,7,2,-7
3972.28,-1,8,7,-2
3972.28,-1,8,7,-1
3972.28,0,4,2,-4
3972.28,-4,-1,-3,-5
3972.28,-1,0,-2,-2
3972.28,2,6,3,3
3972.28,5,7,7,6
3972.28,5,6,8,7
3972.28,6,5,7,7
3972.28,5,4,6,5
3972.28,3,2,3,4
3972.28,1,-1,0,0
3972.28,1,-2,-3,0
3972.28,3,0,-1,2
3972.29,5,3,1,4
3972.29,7,3,1,4
3972.29,7,4,2,5
3972.29,7,3,2,6
3972.29,7,4,2,5
3972.29,4,-1,-2,3
3972.29,2,-5,-6,2
3972.29,3,-4,-3,5
3972.29,6,0,0,8
3972.29,8,1,2,10
3972.29,10,5,5,10
3972.29,9,4,4,7
3972.29,7,5,4,4
3972.29,3,3,5,4
3972.29,2,2,2,0
3972.29,0,1,0,-4
3972.29,0,5,1,-3
3972.3,0,8,5,-2
3972.3,0,9,5,-3
3972.3,0,8,4,-4
3972.3,-1,7,3,-6
3972.3,-2,6,1,-7
3972.3,-1,5,2,-4
3972.3,-1,6,4,-1
3972.3,0,5,5,3
3972.3,2,4,5,4
3972.3,2,3,5,4
3972.3,3,3,4,4
3972.3,3,3,4,4
3972.3,2,1,3,4
3972.3,3,2,3,4
3972.3,3,1,2,3
3972.3,3,0,1,3
3972.3,2,0,0,2
3972.31,3,0,0,2
3972.31,3,2,1,3
3972.31,5,2,0,3
3972.31,6,3,0,1
3972.31,6,4,0,2
3972.31,6,3,0,2
3972.31,5,0,0,5
3972.31,6,0,1,7
3972.31,7,0,2,10
3972.31,8,0,3,11
3972.31,7,0,3,9
3972.31,6,0,3,7
3972.31,6,1,1,5
3972.31,4,0,0,0
3972.31,2,2,0,-1
3972.31,1,2,-1,-3
3972.31,2,6,0,-2
3972.31,3,10,4,-2
3972.32,3,10,4,-2
3972.32,2,10,4,-4
3972.32,1,10,6,-3
3972.32,0,10,8,0
3972.32,0,9,10,0
3972.32,-2,5,8,0
3972.32,-3,3,6,1
3972.32,-3,0,3,0
3972.32,-3,-2,0,0
3972.32,-2,-2,-1,0
3972.32,0,0,0,1
3972.32,2,1,2,2
3972.32,2,2,2,4
3972.32,4,3,4,5
3972.32,5,5,3,4
3972.32,5,4,1,2
3972.32,5,3,0,2
3972.33,5,4,1,3
3972.33,5,3,0,3
3972.33,5,4,1,3
3972.33,6,4,2,4
3972.33,6,5,3,5
3972.33,5,1,1,4
3972.33,2,-3,-2,4
3972.33,3,-4,-3,6
3972.33,6,-1,-1,7
3972.33,7,-1,-1,7
3972.33,8,1,1,7
3972.33,8,3,1,7
3972.33,8,3,0,3
3972.33,6,5,1,1
3972.33,5,4,1,0
3972.33,4,4,0,0
3972.33,4,9,3,0
3972.33,4,10,8,0
3972.34,3,12,10,0
3972.34,1,9,8,-2
3972.34,-2,8,7,-3
3972.34,-4,6,7,-3
3972.34,-5,2,2,-6
3972.34,-7,0,0,-6
3972.34,-5,0,0,-2
3972.34,-2,0,0,-1
3972.34,-1,1,1,1
3972.34,2,2,3,3
3972.34,4,3,4,4
3972.34,4,4,4,5
3972.34,6,5,6,6
3972.34,6,5,3,4
3972.34,4,2,2,4
3972.34,4,3,3,5
3972.34,5,4,3,4
3972.35,4,2,2,4
3972.35,3,2,2,3
3972.35,3,1,1,3
3972.35,3,1,0,1
3972.35,2,0,-3,0
3972.35,2,0,-3,2
3972.35,3,-1,-1,6
3972.35,6,-1,0,9
3972.35,7,1,2,10
3972.35,8,0,1,10
3972.35,10,2,2,8
3972.35,7,2,1,5
3972.35,7,3,1,3
3972.35,5,4,2,2
3972.35,3,4,0,0
3972.35,3,4,0,-1
3972.35,4,8,4,0
3972.36,3,10,5,-2
3972.36,0,10,8,-1
3972.36,0,10,7,-2
3972.36,-1,8,6,-3
3972.36,-3,5,3,-6
3972.36,-4,3,3,-5
3972.36,-5,2,2,-3
3972.36,-4,0,0,-1
3972.36,-1,0,2,1
3972.36,1,3,4,3
3972.36,2,3,4,5
3972.36,4,2,3,4
3972.36,4,3,2,4
3972.36,4,2,2,3
3972.36,4,3,2,3
3972.36,3,3,4,5
3972.36,4,3,4,6
3972.36,5,3,4,6
3972.37,5,2,2,4
3972.37,3,2,2,3
3972.37,3,0,-2,0
3972.37,1,-1,-5,-2
3972.37,2,0,-5,-1
3972.37,3,0,-4,2
3972.37,6,1,0,7
3972.37,9,2,1,9
3972.37,10,4,6,13
3972.37,11,3,5,12
3972.37,10,4,4,8
3972.37,7,0,0,3
3972.37,4,0,0,1
3972.37,3,2,2,2
3972.37,3,4,3,1
3972.37,3,5,3,0
3972.37,2,7,4,-2
3972.38,0,7,4,-4
3972.38,0,8,5,-4
3972.38,-1,8,6,-3
3972.38,-2,6,3,-6
3972.38,-3,5,1,-7
3972.38,-3,6,6,-1
3972.38,-1,5,5,-1
3972.38,-2,2,4,2
3972.38,1,3,6,5
3972.38,1,1,3,3
3972.38,1,0,1,1
3972.38,1,0,1,3
3972.38,3,2,2,3
3972.38,4,2,2,3
3972.38,4,3,2,4
3972.38,5,4,4,5
3972.38,6,4,5,5
3972.39,4,3,3,5
3972.39,4,1,1,2
3972.39,3,1,1,3
3972.39,3,1,0,1
3972.39,2,1,0,1
3972.39,2,0,-1,2
3972.39,2,-3,-3,3
3972.39,3,-3,-3,6
3972.39,7,0,-1,7
3972.39,8,0,-1,7
3972.39,9,3,1,8
3972.39,10,5,4,9
3972.39,9,6,5,7
3972.39,8,7,7,5
3972.39,4,4,3,2
3972.39,1,3,2,0
3972.39,1,5,3,-1
3972.39,0,7,4,-1
3972.4,0,7,3,-4
3972.4,-1,6,1,-8
3972.4,-2,6,1,-8
3972.4,-3,6,1,-6
3972.4,-1,6,1,-5
3972.4,0,8,3,-2
3972.4,0,5,2,0
3972.4,1,4,3,2
3972.4,2,4,5,4
3972.4,3,5,9,8
3972.4,4,3,5,5
3972.4,2,0,0,2
3972.4,2,2,2,3
3972.4,2,1,1,3
3972.4,2,0,0,2
3972.4,3,1,1,3
3972.4,4,2,1,3
3972.41,4,2,1,3
3972.41,5,2,0,2
3972.41,4,1,0,1
3972.41,4,2,1,4
3972.41,6,4,3,5
3972.41,6,3,1,5
3972.41,4,-2,-3,2
3972.41,4,-3,-4,3
3972.41,5,0,0,7
3972.41,8,2,4,10
3972.41,8,2,3,10
3972.41,7,0,2,7
3972.41,6,1,0,3
3972.41,5,2,1,2
3972.41,4,4,2,1
3972.41,3,4,0,0
3972.41,4,9,5,0
3972.42,3,9,5,0
3972.42,2,9,5,-3
3972.42,0,9,4,-5
3972.42,-1,8,4,-5
3972.42,-2,8,7,-2
3972.42,-1,8,9,-1
3972.42,-2,6,6,-1
3972.42,-5,0,1,-2
3972.42,-4,0,2,0
3972.42,-2,-1,0,0
3972.42,-1,-1,1,1
3972.42,1,1,1,3
3972.42,3,2,2,4
3972.42,6,4,2,5
3972.42,6,4,2,4
3972.42,6,5,4,6
3972.42,6,4,3,5
3972.42,6,4,3,5
3972.43,6,4,2,4
3972.43,5,3,3,4
3972.43,4,3,3,4
3972.43,3,2,3,3
3972.43,2,0,1,4
3972.43,1,-2,-1,3
3972.43,0,-6,-5,2
3972.43,3,-6,-6,2
3972.43,4,-3,-5,3
3972.43,8,0,-2,5
3972.43,10,5,2,8
3972.43,12,9,6,9
3972.43,10,8,6,7
3972.43,8,7,4,3
3972.43,5,5,4,2
3972.43,4,6,3,0
3972.43,3,7,4,-1
3972.44,0,6,3,-3
3972.44,-1,8,5,-3
3972.44,-1,8,5,-4
3972.44,-1,7,5,-5
3972.44,-4,4,3,-6
3972.44,-4,2,2,-4
3972.44,-3,3,4,-2
3972.44,-3,1,3,0
3972.44,0,3,4,1
3972.44,1,3,3,1
3972.44,1,3,3,2
3972.44,3,2,3,3
3972.44,3,3,2,3
3972.44,4,4,2,4
3972.44,4,3,2,4
3972.44,4,3,3,5
3972.44,5,4,4,7
3972.44,5,3,5,6
3972.45,4,2,3,4
3972.45,3,1,2,4
3972.45,2,0,0,2
3972.45,2,-1,-3,-1
3972.45,2,0,-3,0
3972.45,3,0,0,6
3972.45,4,-1,0,6
3972.45,6,-3,-6,2
3972.45,7,0,-5,4
3972.45,10,4,2,9
3972.45,12,6,5,9
3972.45,10,6,4,7
3972.45,9,7,6,6
3972.45,6,7,6,4
3972.45,3,4,4,1
3972.45,1,4,3,-1
3972.45,0,6,4,-1
3972.46,0,7,6,-2
3972.46,-1,7,4,-4
3972.46,-2,5,2,-6
3972.46,-3,5,3,-6
3972.46,-4,5,2,-5
3972.46,-4,5,4,-2
3972.46,-1,5,3,-1
3972.46,-2,1,2,0
3972.46,0,1,2,0
3972.46,0,2,3,2
3972.46,3,3,4,6
3972.46,5,4,4,5
3972.46,5,3,1,4
3972.46,4,3,1,3
3972.46,4,2,1,3
3972.46,4,3,3,5
3972.46,6,3,3,5
3972.46,4,3,2,4
3972.47,4,1,0,2
3972.47,4,2,0,2
3972.47,4,2,0,1
3972.47,4,2,0,2
3972.47,4,1,0,2
3972.47,2,-3,-3,4
3972.47,5,-2,-2,6
3972.47,7,0,0,8
3972.47,8,1,5,13
3972.47,10,4,6,11
3972.47,8,3,3,7
3972.47,5,0,1,3
3972.47,3,2,0,0
3972.47,2,2,1,0
3972.47,1,2,1,0
3972.47,2,6,3,0
3972.47,2,8,4,-2
3972.48,1,10,6,-2
3972.48,0,10,8,-2
3972.48,0,9,8,-1
3972.48,-1,7,6,-3
3972.48,-3,5,4,-4
3972.48,-5,1,1,-4
3972.48,-6,-1,0,-3
3972.48,-4,-1,0,0
3972.48,0,1,2,2
3972.48,4,4,4,3
3972.48,4,4,1,2
3972.48,5,4,0,2
3972.48,5,5,4,4
3972.48,6,5,3,5
3972.48,7,3,2,4
3972.48,6,4,2,5
3972.48,7,5,2,4
3972.48,6,3,2,4
3972.49,4,2,1,3
3972.49,4,3,2,4
3972.49,4,3,1,3
3972.49,4,1,0,1
3972.49,0,-3,-3,1
3972.49,0,-5,-3,4
3972.49,4,-2,-1,7
3972.49,8,0,0,8
3972.49,7,0,0,8
3972.49,8,2,1,8
3972.49,8,3,3,7
3972.49,8,6,4,5
3972.49,5,5,4,3
3972.49,3,5,3,0
3972.49,2,4,2,0
3972.49,3,7,2,-3
3972.49,0,7,2,-4
3972.5,0,6,1,-6
3972.5,0,7,1,-7
3972.5,0,9,3,-5
3972.5,0,9,3,-4
3972.5,1,9,6,-2
3972.5,2,9,7,0
3972.5,0,6,8,4
3972.5,0,5,13,8
3972.5,0,2,12,10
3972.5,-1,-1,7,5
3972.5,-4,-5,0,1
3972.5,-4,-6,-3,-1
3972.5,-3,-5,-5,-2
3972.5,0,-2,-4,-1
3972.5,2,1,0,1
3972.5,6,3,1,5
3972.5,9,6,2,6
3972.51,10,7,3,4
3972.51,8,7,3,6
3972.51,8,6,4,5
3972.51,8,5,3,5
3972.51,6,3,2,5
3972.51,3,-1,-1,3
3972.51,2,-5,-4,3
3972.51,3,-4,-5,3
3972.51,5,-1,-2,5
3972.51,7,0,0,7
3972.51,9,4,3,8
3972.51,9,4,2,6
3972.51,8,5,3,5
3972.51,6,4,2,2
3972.51,4,3,0,0
3972.51,2,4,0,-2
3972.51,3,9,4,-1
3972.51,4,13,9,0
3972.52,3,14,14,1
3972.52,0,10,11,0
3972.52,-3,5,6,-4
3972.52,-6,1,1,-6
3972.52,-7,0,0,-8
3972.52,-8,-1,0,-6
3972.52,-6,-2,-1,-2
3972.52,-1,0,-2,-2
3972.52,2,2,-3,-3
3972.52,3,4,0,2
3972.52,8,9,7,8
3972.52,10,8,6,8
3972.52,10,9,7,9
3972.52,9,7,6,7
3972.52,6,5,5,5
3972.52,3,0,-1,1
3972.52,1,0,0,1
3972.53,3,0,0,2
3972.53,4,1,0,1
3972.53,3,1,-1,1
3972.53,4,3,2,4
3972.53,5,2,3,6
3972.53,3,0,4,9
3972.53,4,-1,4,11
3972.53,4,-5,-3,4
3972.53,1,-6,-4,4
3972.53,4,-1,0,7
3972.53,8,1,3,7
3972.53,7,4,4,7
3972.53,7,6,5,5
3972.53,5,5,4,2
3972.53,2,3,0,-1
3972.53,1,5,4,0
3972.53,2,8,6,-1
3972.53,0,8,3,-5
3972.54,0,7,3,-5
3972.54,-1,8,4,-4
3972.54,-2,8,6,-3
3972.54,-2,4,4,-3
3972.54,-1,3,2,-2
3972.54,-1,4,3,0
3972.54,0,3,4,2
3972.54,1,2,2,0
3972.54,2,1,0,0
3972.54,2,1,-1,0
3972.54,4,4,2,2
3972.54,6,6,4,5
3972.54,6,5,3,5
3972.54,5,4,3,5
3972.54,5,4,5,6
3972.54,6,6,8,7
3972.54,4,2,4,5
3972.55,2,0,0,2
3972.55,1,-1,0,2
3972.55,3,0,-1,1
3972.55,3,0,-1,0
3972.55,1,-1,-3,0
3972.55,1,-5,-6,2
3972.55,5,-2,-4,5
3972.55,9,3,1,9
3972.55,10,4,4,12
3972.55,11,7,11,16
3972.55,11,6,11,14
3972.55,7,3,9,9
3972.55,3,1,3,1
3972.55,-1,-4,-8,-8
3972.55,-4,-2,-6,-7
3972.55,-1,1,-4,-7
3972.55,0,6,-3,-7
3972.55,4,11,0,-6
3972.56,5,15,6,-2
3972.56,6,18,11,0
3972.56,5,17,17,5
3972.56,3,14,19,7
3972.56,0,5,8,0
3972.56,-6,-3,-1,-5
3972.56,-8,-7,-5,-7
3972.56,-7,-5,-3,-3
3972.56,-2,-1,0,1
3972.56,2,2,4,5
3972.56,5,6,6,7
3972.56,6,4,3,4
3972.56,4,2,2,3
3972.56,4,2,2,4
3972.56,5,3,2,5
3972.56,6,4,3,6
3972.56,6,3,2,3
3972.57,4,1,0,1
3972.57,3,1,1,2
3972.57,4,2,1,3
3972.57,5,3,1,3
3972.57,3,-1,-1,3
3972.57,3,-4,-4,4
3972.57,4,-3,-3,6
3972.57,7,0,0,7
3972.57,9,2,4,10
3972.57,11,6,7,12
3972.57,10,4,4,7
3972.57,6,3,2,3
3972.57,2,2,1,0
3972.57,1,3,3,1
3972.57,2,3,3,0
3972.57,1,5,1,-3
3972.57,0,5,0,-5
3972.58,0,8,3,-5
3972.58,0,11,8,0
3972.58,1,12,11,0
3972.58,0,8,6,-2
3972.58,-2,3,0,-6
3972.58,-4,2,0,-5
3972.58,-3,1,0,-2
3972.58,-1,0,0,0
3972.58,0,2,2,2
3972.58,3,3,4,4
3972.58,4,4,5,5
3972.58,5,3,3,4
3972.58,4,2,2,4
3972.58,5,3,1,3
3972.58,4,2,1,3
3972.58,5,2,0,3
3972.58,5,3,0,3
3972.58,5,2,0,2
3972.59,5,2,0,2
3972.59,7,5,3,5
3972.59,7,7,6,7
3972.59,5,4,5,6
3972.59,1,-2,1,5
3972.59,2,-4,-1,5
3972.59,2,-5,-3,4
3972.59,2,-5,-4,3
3972.59,3,-3,-3,5
3972.59,7,1,0,6
3972.59,8,4,1,5
3972.59,9,7,3,4
3972.59,6,6,3,2
3972.59,4,5,2,1
3972.59,4,6,4,1
3972.59,5,9,5,0
3972.59,4,10,7,-1
3972.6,1,10,7,-3
3972.6,-1,8,8,-1
3972.6,-2,8,10,0
3972.6,-4,5,8,-1
3972.6,-6,1,3,-4
3972.6,-7,-3,-4,-8
3972.6,-7,-3,-2,-3
3972.6,-2,0,-1,-1
3972.6,1,1,-1,-1
3972.6,2,3,0,2
3972.6,6,6,4,5
3972.6,8,5,1,4
3972.6,9,7,4,5
3972.6,9,8,4,5
3972.6,10,9,5,6
3972.6,8,5,5,6
3972.6,6,3,4,6
3972.6,5,4,6,7
3972.61,5,5,12,11
3972.61,2,0,6,6
3972.61,-1,-6,-3,0
3972.61,-5,-11,-10,-4
3972.61,-5,-13,-11,0
3972.61,0,-8,-6,3
3972.61,5,-1,-2,7
3972.61,10,2,0,8
3972.61,14,6,1,9
3972.61,13,7,2,6
3972.61,12,11,6,7
3972.61,12,14,9,7
3972.61,8,10,9,5
3972.61,4,6,6,2
3972.61,0,3,2,-2
3972.61,-2,3,1,-5
3972.61,-3,3,3,-5
3972.62,-3,6,4,-5
3972.62,-2,9,6,-4
3972.62,-2,7,5,-5
3972.62,-4,5,4,-5
3972.62,-5,5,6,-2
3972.62,-4,1,3,-1
3972.62,-2,0,0,-2
3972.62,0,1,0,0
3972.62,0,0,0,0
3972.62,1,0,0,2
3972.62,5,3,2,6
3972.62,9,7,6,10
3972.62,11,9,6,9
3972.62,9,7,5,5
3972.62,6,3,2,4
3972.62,3,1,0,3
3972.62,4,2,1,3
3972.62,5,2,1,3
3972.63,4,1,0,1
3972.63,2,1,0,1
3972.63,2,1,0,3
3972.63,3,0,0,4
3972.63,4,-2,-1,5
3972.63,4,-2,-1,6
3972.63,5,-1,0,7
3972.63,5,-1,1,8
3972.63,8,2,3,9
3972.63,8,2,2,5
3972.63,6,2,0,1
3972.63,3,1,-1,-1
3972.63,4,4,1,0
3972.63,4,8,3,1
3972.63,7,11,6,0
3972.63,4,11,6,-1
3972.63,2,11,7,-2
3972.64,0,10,8,-2
3972.64,-1,9,10,0
3972.64,-2,5,6,-2
3972.64,-6,2,2,-6
3972.64,-7,0,0,-5
3972.64,-6,-1,0,-2
3972.64,-2,0,1,0
3972.64,0,0,1,1
3972.64,1,2,3,3
3972.64,4,3,2,3
3972.64,5,4,2,5
3972.64,6,5,3,5
3972.64,6,5,3,5
3972.64,6,4,2,4
3972.64,6,4,3,5
3972.64,6,3,1,3
3972.64,4,2,1,3
3972.65,4,2,1,3
3972.65,4,4,5,6
3972.65,4,3,3,4
3972.65,4,0,0,2
3972.65,0,-4,-4,1
3972.65,0,-6,-5,3
3972.65,4,-3,-2,5
3972.65,6,0,0,6
3972.65,8,0,0,7
3972.65,10,4,2,8
3972.65,10,6,4,7
3972.65,9,7,4,4
3972.65,6,6,3,3
3972.65,5,5,2,1
3972.65,2,5,2,0
3972.65,2,8,5,0
3972.65,2,9,6,-1
3972.66,0,8,6,-3
3972.66,0,9,7,-3
3972.66,-3,6,4,-6
3972.66,-6,3,0,-7
3972.66,-6,3,2,-4
3972.66,-3,4,4,-1
3972.66,-2,1,3,0
3972.66,0,1,2,1
3972.66,0,2,3,2
3972.66,3,3,3,3
3972.66,4,4,3,4
3972.66,4,3,3,4
3972.66,5,2,1,3
3972.66,5,2,0,3
3972.66,5,2,1,3
3972.66,6,4,2,4
3972.66,6,4,2,5
3972.66,6,3,0,2
3972.67,6,4,2,5
3972.67,6,6,7,8
3972.67,6,5,7,7
3972.67,3,0,0,2
3972.67,0,-7,-6,1
3972.67,0,-7,-6,1
3972.67,3,-4,-4,4
3972.67,4,-3,0,8
3972.67,8,0,2,10
3972.67,11,6,6,10
3972.67,9,5,5,7
3972.67,6,4,5,4
3972.67,2,3,3,2
3972.67,1,3,2,0
3972.67,3,6,5,0
3972.67,2,7,3,-3
3972.67,0,7,3,-5
3972.68,0,7,3,-5
3972.68,-1,8,6,-3
3972.68,-1,7,5,-3
3972.68,-3,5,2,-5
3972.68,-3,3,0,-5
3972.68,-2,1,-2,-6
3972.68,-2,0,-4,-4
3972.68,2,6,4,4
3972.68,7,10,8,7
3972.68,7,8,8,7
3972.68,6,6,7,7
3972.68,5,3,3,3
3972.68,2,0,-1,0
3972.68,3,0,-2,0
3972.68,3,2,1,3
3972.68,5,4,4,5
3972.68,5,4,2,4
3972.68,5,2,1,4
3972.69,5,2,0,2
3972.69,3,0,-1,0
3972.69,2,0,0,1
3972.69,3,0,0,5
3972.69,4,-1,0,6
3972.69,6,-1,-1,6
3972.69,6,0,0,7
3972.69,5,-1,0,8
3972.69,8,2,3,9
3972.69,8,2,3,8
3972.69,7,4,3,6
3972.69,6,2,0,0
3972.69,3,2,-2,-1
3972.69,3,4,0,0
3972.69,4,9,4,0
3972.69,4,11,6,0
3972.69,2,11,8,-1
3972.7,1,13,12,-1
3972.7,0,12,13,0
3972.7,-3,8,11,0
3972.7,-7,0,1,-7
3972.7,-10,-4,-3,-8
3972.7,-8,-4,-1,-5
3972.7,-4,0,1,0
3972.7,0,1,2,2
3972.7,2,3,3,4
3972.7,5,5,4,5
3972.7,6,3,0,1
3972.7,6,3,-3,0
3972.7,5,5,1,4
3972.7,9,7,5,7
3972.7,9,8,7,9
3972.7,9,8,9,9
3972.7,6,4,5,5
3972.7,2,0,1,2
3972.71,1,-2,-3,-1
3972.71,1,0,-1,0
3972.71,2,1,2,3
3972.71,1,-2,0,4
3972.71,0,-9,-6,3
3972.71,2,-5,-4,6
3972.71,8,0,1,9
3972.71,8,1,1,8
3972.71,10,4,3,9
3972.71,10,5,4,8
3972.71,8,6,4,5
3972.71,7,5,2,2
3972.71,3,4,0,-1
3972.71,2,4,1,0
3972.71,4,7,3,-1
3972.71,2,9,7,0
3972.71,2,11,8,-1
3972.72,0,10,6,-3
3972.72,-2,8,5,-5
3972.72,-3,6,5,-4
3972.72,-4,4,3,-4
3972.72,-4,1,2,-4
3972.72,-4,0,1,-1
3972.72,-2,0,1,0
3972.72,0,2,3,3
3972.72,1,1,2,3
3972.72,3,1,2,4
3972.72,5,4,4,6
3972.72,7,5,5,5
3972.72,6,3,2,3
3972.72,5,2,1,2
3972.72,4,2,0,1
3972.72,4,2,0,2
3972.72,4,3,2,3
3972.73,5,4,3,5
3972.73,5,3,2,5
3972.73,4,2,2,5
3972.73,4,1,1,4
3972.73,2,-4,-2,2
3972.73,2,-4,-3,4
3972.73,5,-1,0,7
3972.73,7,0,0,8
3972.73,8,1,1,8
3972.73,9,2,1,6
3972.73,7,3,1,4
3972.73,7,4,2,3
3972.73,5,5,2,1
3972.73,3,6,4,1
3972.73,4,7,5,1
3972.73,3,8,7,0
3972.73,1,9,8,0
3972.73,0,7,6,-4
3972.74,-3,4,3,-6
3972.74,-4,4,2,-7
3972.74,-4,3,0,-8
3972.74,-4,3,-1,-7
3972.74,-2,4,0,-3
3972.74,-1,2,1,0
3972.74,2,5,4,3
3972.74,5,6,5,4
3972.74,5,4,3,4
3972.74,6,4,1,3
3972.74,6,4,2,3
3972.74,6,4,2,4
3972.74,5,5,6,7
3972.74,6,4,6,7
3972.74,4,3,4,6
3972.74,3,4,9,9
3972.74,2,1,6,7
3972.75,0,-3,0,1
3972.75,-2,-5,-3,0
3972.75,-1,-3,-4,-1
3972.75,0,-4,-5,0
3972.75,0,-6,-5,3
3972.75,4,-1,-1,8
3972.75,9,1,2,10
3972.75,10,2,3,11
3972.75,11,3,3,9
3972.75,10,2,0,6
3972.75,8,3,-1,2
3972.75,7,5,0,1
3972.75,6,6,2,1
3972.75,5,8,7,4
3972.75,6,12,11,5
3972.75,3,9,8,0
3972.75,0,7,5,-3
3972.75,-2,6,6,-5
3972.76,-4,4,3,-6
3972.76,-6,2,1,-7
3972.76,-6,2,1,-5
3972.76,-4,3,2,-3
3972.76,-3,1,2,0
3972.76,-1,1,2,0
3972.76,0,2,4,3
3972.76,4,3,3,3
3972.76,3,1,-1,0
3972.76,4,2,-1,1
3972.76,5,5,3,4
3972.76,7,7,7,8
3972.76,7,7,9,11
3972.76,8,5,8,9
3972.76,6,3,3,3
3972.76,2,0,-1,0
3972.76,0,-1,-2,0
3972.77,0,0,-1,1
3972.77,2,2,0,3
3972.77,5,4,4,6
3972.77,4,1,1,5
3972.77,1,-4,-3,5
3972.77,2,-5,-4,4
3972.77,5,-3,-6,2
3972.77,5,-2,-6,2
3972.77,10,5,0,6
3972.77,11,7,4,8
3972.77,12,10,7,8
3972.77,10,9,7,7
3972.77,6,6,4,2
3972.77,3,4,2,0
3972.77,2,6,3,-1
3972.77,0,6,4,-3
3972.77,0,7,5,-4
3972.77,-1,6,3,-5
3972.78,-2,6,5,-4
3972.78,-3,6,5,-4
3972.78,-5,3,4,-3
3972.78,-3,3,4,-1
3972.78,-3,1,3,1
3972.78,0,2,4,2
3972.78,1,2,4,3
3972.78,2,3,5,4
3972.78,2,3,3,3
3972.78,3,2,2,2
3972.78,2,1,0,1
3972.78,2,0,0,1
3972.78,2,1,0,2
3972.78,5,3,1,5
3972.78,7,4,2,6
3972.78,7,5,3,4
3972.78,6,4,2,4
3972.79,5,2,0,1
3972.79,4,2,-1,1
3972.79,5,4,0,2
3972.79,4,0,0,4
3972.79,5,-2,-2,5
3972.79,5,-1,0,8
3972.79,7,0,2,9
3972.79,8,3,7,13
3972.79,10,5,9,12
3972.79,5,0,0,3
3972.79,1,-1,-1,0
3972.79,0,0,-1,-1
3972.79,0,1,0,0
3972.79,2,4,2,0
3972.79,3,7,4,0
3972.79,2,8,3,-2
3972.79,2,10,5,-3
3972.79,0,9,5,-3
3972.8,0,9,5,-5
3972.8,-2,6,4,-4
3972.8,-1,7,4,-2
3972.8,-1,4,4,0
3972.8,-1,1,1,0
3972.8,0,1,1,0
3972.8,1,4,7,5
3972.8,2,3,5,4
3972.8,2,2,2,2
3972.8,1,2,4,5
3972.8,3,3,6,6
3972.8,2,1,4,5
3972.8,3,0,0,3
3972.8,3,0,0,2
3972.8,3,1,0,2
3972.8,3,1,1,2
3972.8,3,1,1,3
3972.81,5,3,2,4
3972.81,6,4,2,4
3972.81,4,2,0,4
3972.81,2,-3,-2,4
3972.81,2,-4,-2,6
3972.81,6,-1,0,7
3972.81,8,0,0,8
3972.81,8,1,-1,6
3972.81,8,2,-1,4
3972.81,8,4,0,2
3972.81,9,8,1,1
3972.81,8,10,6,4
3972.81,6,8,9,5
3972.81,4,7,6,2
3972.81,2,6,5,-1
3972.81,0,5,2,-4
3972.81,-2,4,2,-7
3972.82,-4,4,2,-7
3972.82,-3,6,2,-6
3972.82,-3,4,0,-6
3972.82,0,7,2,-3
3972.82,1,8,5,0
3972.82,0,4,5,2
3972.82,0,3,5,4
3972.82,2,4,7,6
3972.82,3,3,5,5
3972.82,3,2,3,3
3972.82,1,-1,0,1
3972.82,1,-1,-2,0
3972.82,2,0,-1,1
3972.82,5,3,0,3
3972.82,6,4,2,3
3972.82,6,4,3,4
3972.82,6,4,3,5
3972.82,6,5,4,5
3972.83,6,4,2,4
3972.83,4,1,0,2
3972.83,2,0,0,2
3972.83,1,-5,-1,5
3972.83,4,-2,0,7
3972.83,6,-1,0,7
3972.83,5,-2,-2,6
3972.83,7,0,0,6
3972.83,6,1,0,5
3972.83,8,4,0,3
3972.83,8,6,2,3
3972.83,7,7,4,3
3972.83,5,7,4,2
3972.83,4,9,6,0
3972.83,3,8,5,-1
3972.83,1,9,6,-3
3972.83,-1,9,6,-4
3972.84,-3,6,3,-6
3972.84,-4,5,4,-4
3972.84,-4,5,5,-2
3972.84,-3,4,4,-2
3972.84,-3,0,0,-3
3972.84,-3,0,0,0
3972.84,0,2,2,1
3972.84,1,2,2,3
3972.84,3,3,3,5
3972.84,6,5,5,6
3972.84,5,5,7,7
3972.84,6,4,5,5
3972.84,4,2,2,4
3972.84,2,1,1,3
3972.84,3,1,1,2
3972.84,3,0,1,3
3972.84,3,1,0,3
3972.84,3,1,1,3
3972.85,4,1,-1,1
3972.85,4,1,-2,0
3972.85,3,0,-2,2
3972.85,4,0,-1,5
3972.85,6,0,0,8
3972.85,8,2,1,9
3972.85,9,1,1,9
3972.85,10,4,3,8
3972.85,9,4,2,6
3972.85,7,3,1,2
3972.85,3,1,0,0
3972.85,1,2,0,0
3972.85,3,4,1,0
3972.85,4,8,2,-3
3972.85,3,8,3,-3
3972.85,2,11,6,-2
3972.85,1,10,7,-2
3972.86,2,12,10,0
3972.86,0,8,8,-1
3972.86,-3,4,4,-4
3972.86,-5,2,5,-1
3972.86,-6,-1,3,0
3972.86,-3,0,4,2
3972.86,-1,-1,1,1
3972.86,-1,-1,0,1
3972.86,0,-1,-1,0
3972.86,2,1,0,2
3972.86,4,2,1,3
3972.86,6,4,3,4
3972.86,7,6,4,6
3972.86,7,5,3,4
3972.86,6,4,2,4
3972.86,6,4,3,5
3972.86,5,4,4,6
3972.86,5,0,-2,0
3972.87,3,2,0,2
3972.87,4,4,5,7
3972.87,3,-1,1,6
3972.87,2,-5,-3,4
3972.87,3,-4,-3,6
3972.87,5,-2,-2,5
3972.87,6,-2,-2,5
3972.87,8,1,0,5
3972.87,8,4,0,4
3972.87,9,7,2,3
3972.87,7,7,4,4
3972.87,6,8,5,3
3972.87,4,7,6,2
3972.87,3,7,7,1
3972.87,2,9,7,0
3972.87,0,7,5,-4
3972.87,-2,4,1,-7
3972.88,-5,2,0,-9
3972.88,-5,2,-2,-9
3972.88,-2,5,1,-5
3972.88,0,7,5,0
3972.88,2,8,7,2
3972.88,2,5,6,3
3972.88,2,4,4,2
3972.88,1,2,3,3
3972.88,2,1,4,4
3972.88,2,1,2,3
3972.88,2,1,1,3
3972.88,2,1,1,3
3972.88,3,2,1,4
3972.88,5,3,2,4
3972.88,5,4,2,4
3972.88,4,2,1,3
3972.88,4,4,4,4
3972.89,4,4,4,5
3972.89,3,1,2,4
3972.89,2,0,0,3
3972.89,0,-5,-4,3
3972.89,3,-4,-5,3
3972.89,5,-3,-5,3
3972.89,6,-1,-3,5
3972.89,9,2,0,7
3972.89,11,6,4,8
3972.89,11,8,5,7
3972.89,9,8,6,5
3972.89,7,6,4,3
3972.89,3,5,4,0
3972.89,2,6,5,0
3972.89,2,7,5,-2
3972.89,0,7,5,-3
3972.89,-2,6,4,-5
3972.9,-3,5,3,-6
3972.9,-5,5,3,-4
3972.9,-3,5,4,-4
3972.9,-4,3,3,-2
3972.9,-2,3,4,0
3972.9,-1,2,2,1
3972.9,0,3,5,4
3972.9,2,3,3,2
3972.9,2,1,0,1
3972.9,3,1,-2,0
3972.9,4,3,0,2
3972.9,5,5,3,5
3972.9,6,4,3,5
3972.9,7,5,3,6
3972.9,7,4,1,3
3972.9,5,3,0,2
3972.9,5,3,2,3
3972.9,4,5,6,6
3972.91,5,5,7,8
3972.91,5,3,4,5
3972.91,1,-2,0,2
3972.91,0,-6,-4,2
3972.91,0,-7,-5,3
3972.91,2,-4,-2,4
3972.91,4,-3,-1,7
3972.91,9,3,2,7
3972.91,8,2,1,6
3972.91,8,5,2,5
3972.91,7,6,4,4
3972.91,7,8,6,4
3972.91,6,6,1,0
3972.91,5,9,3,-2
3972.91,2,9,4,-3
3972.91,1,10,7,-2
3972.91,0,8,5,-3
3972.92,-1,8,4,-4
3972.92,-3,6,4,-4
3972.92,-3,6,9,1
3972.92,-3,4,8,1
3972.92,-5,-1,2,-1
3972.92,-4,-3,-1,-1
3972.92,-1,0,3,1
3972.92,0,0,2,2
3972.92,0,0,1,3
3972.92,1,1,3,5
3972.92,6,5,4,6
3972.92,7,5,3,4
3972.92,5,2,0,2
3972.92,3,0,0,3
3972.92,5,3,1,4
3972.92,7,5,3,5
3972.92,7,4,2,4
3972.92,6,3,0,2
3972.93,4,3,0,1
3972.93,3,1,0,4
3972.93,3,0,0,4
3972.93,4,-2,-2,5
3972.93,4,-1,0,7
3972.93,5,-1,0,7
3972.93,6,0,2,8
3972.93,7,2,3,8
3972.93,7,3,2,5
3972.93,5,2,0,1
3972.93,3,0,-4,-2
3972.93,3,3,-3,-2
3972.93,5,7,1,0
3972.93,6,11,4,0
3972.93,6,13,6,-1
3972.93,4,14,10,0
3972.93,2,13,12,0
3972.94,1,11,10,-1
3972.94,-3,5,5,-4
3972.94,-5,2,2,-6
3972.94,-7,-1,0,-6
3972.94,-8,-3,-1,-3
3972.94,-3,0,1,1
3972.94,0,2,4,3
3972.94,2,3,7,7
3972.94,3,4,8,8
3972.94,4,2,5,5
3972.94,2,0,2,3
3972.94,1,0,0,1
3972.94,2,-2,-4,0
3972.94,3,0,-7,-3
3972.94,5,2,-5,0
3972.94,9,7,0,3
3972.94,11,10,5,7
3972.94,11,9,6,9
3972.95,10,8,6,7
3972.95,8,4,2,5
3972.95,3,-2,-2,3
3972.95,2,-5,-3,4
3972.95,3,-4,-2,5
3972.95,5,-1,0,7
3972.95,6,0,0,7
3972.95,7,1,0,6
3972.95,6,2,2,5
3972.95,6,4,4,4
3972.95,4,5,3,2
3972.95,3,5,3,1
3972.95,3,6,4,0
3972.95,1,6,5,-1
3972.95,0,8,7,-1
3972.95,-1,8,5,-3
3972.95,-1,7,4,-5
3972.96,-2,7,5,-4
3972.96,-3,4,3,-6
3972.96,-4,3,2,-4
3972.96,-3,2,1,-2
3972.96,-1,1,0,0
3972.96,0,2,1,1
3972.96,3,4,1,2
3972.96,4,4,3,3
3972.96,5,6,6,7
3972.96,7,8,10,10
3972.96,6,5,9,9
3972.96,4,2,6,7
3972.96,1,0,3,4
3972.96,0,-2,1,2
3972.96,0,-1,-1,0
3972.96,0,-1,-2,0
3972.96,0,0,-1,1
3972.97,4,2,1,2
3972.97,5,3,1,3
3972.97,5,1,-1,1
3972.97,1,-3,-6,1
3972.97,5,-2,-5,3
3972.97,7,2,0,8
3972.97,11,4,4,12
3972.97,13,6,5,11
3972.97,11,5,3,7
3972.97,8,4,2,5
3972.97,7,6,4,3
3972.97,4,5,4,2
3972.97,3,4,3,1
3972.97,2,5,4,0
3972.97,1,6,3,-3
3972.97,0,7,4,-4
3972.97,-2,6,4,-5
3972.97,-2,7,5,-5
3972.98,-3,7,5,-4
3972.98,-3,5,5,-3
3972.98,-3,3,2,-3
3972.98,-3,0,0,-2
3972.98,-2,-1,0,0
3972.98,1,2,3,3
3972.98,5,5,4,4
3972.98,5,4,3,4
3972.98,4,3,2,3
3972.98,4,3,2,3
3972.98,4,3,3,5
3972.98,5,4,4,5
3972.98,6,3,3,4
3972.98,4,2,3,4
3972.98,4,2,2,4
3972.98,2,0,1,3
3972.98,2,0,0,3
3972.99,3,0,0,2
3972.99,3,0,0,2
3972.99,2,-1,-1,3
3972.99,2,-3,-3,4
3972.99,5,0,-1,5
3972.99,7,0,-2,4
3972.99,8,0,-3,5
3972.99,11,5,0,6
3972.99,12,7,1,5
3972.99,11,9,5,7
3972.99,8,9,7,6
3972.99,6,7,6,3
3972.99,3,5,4,0
3972.99,1,5,3,-1
3972.99,0,4,2,-4
3972.99,-1,10,13,2
3972.99,-1,8,11,0
3972.99,-4,4,4,-5
3973,-7,3,2,-7
3973,-8,0,0,-8
3973,-7,0,0,-6
3973,-6,-1,0,-1
3973,-1,1,2,2
3973,3,3,3,4
3973,5,5,3,3
3973,4,4,2,4
3973,5,5,4,6
3973,6,5,4,6
3973,8,7,5,6
3973,6,7,6,6
3973,4,2,3,3
3973,3,0,0,1
3973,2,0,0,1
3973,3,1,-1,1
3973,3,0,-1,1
3973.01,5,3,0,2
3973.01,5,3,1,3
3973.01,3,0,0,5
3973.01,5,0,1,7
3973.01,6,-2,-1,6
3973.01,5,-1,0,7
3973.01,5,0,1,8
3973.01,8,2,3,9
3973.01,7,4,4,6
3973.01,6,3,2,3
3973.01,3,2,1,0
3973.01,2,2,1,0
3973.01,2,4,1,-1
3973.01,3,7,2,-3
3973.01,2,11,5,-4
3973.01,2,12,7,-3
3973.01,0,10,5,-4
3973.01,0,9,6,-3
3973.02,-1,6,4,-3
3973.02,-3,5,5,-1
3973.02,-3,0,2,-2
3973.02,-5,-3,-3,-1
3973.02,0,0,0,1
3973.02,3,3,3,3
3973.02,4,4,2,4
3973.02,5,3,2,4
3973.02,6,4,2,3
3973.02,7,5,2,3
3973.02,6,6,3,5
3973.02,6,5,6,6
3973.02,4,5,7,8
3973.02,5,2,5,6
3973.02,3,0,1,2
3973.02,1,-1,-1,1
3973.02,1,-2,-3,0
3973.03,0,-1,-1,1
3973.03,2,0,0,2
3973.03,2,-2,-1,5
3973.03,5,-2,-3,5
3973.03,7,-1,-1,5
3973.03,7,0,0,8
3973.03,10,4,3,9
3973.03,10,5,5,9
3973.03,10,7,8,10
3973.03,7,5,6,5
3973.03,3,2,2,0
3973.03,1,0,-2,-5
3973.03,0,4,1,-2
3973.03,1,7,4,-2
3973.03,0,8,4,-4
3973.03,0,10,7,-3
3973.03,0,9,6,-3
3973.04,-1,8,7,-3
3973.04,-3,4,3,-4
3973.04,-3,3,3,-2
3973.04,-2,2,3,0
3973.04,-1,1,3,1
3973.04,0,1,2,1
3973.04,0,1,0,0
3973.04,1,0,0,2
3973.04,3,3,2,5
3973.04,6,5,5,6
3973.04,7,5,5,5
3973.04,6,4,3,4
3973.04,4,2,2,4
3973.04,4,3,3,5
3973.04,6,3,4,5
3973.04,5,3,3,3
3973.04,2,0,0,1
3973.04,1,-1,-1,1
3973.05,3,0,-2,0
3973.05,3,0,-3,1
3973.05,3,-2,-3,4
3973.05,5,-2,-3,6
3973.05,8,0,-1,7
3973.05,9,1,1,10
3973.05,11,5,4,10
3973.05,10,5,3,7
3973.05,8,4,2,4
3973.05,5,4,2,1
3973.05,5,6,2,1
3973.05,3,5,3,0
3973.05,4,8,4,-1
3973.05,2,8,5,-1
3973.05,0,9,6,-2
3973.05,0,8,5,-5
3973.05,-3,6,3,-6
3973.06,-4,4,2,-6
3973.06,-3,3,0,-6
3973.06,-3,4,3,-2
3973.06,-2,3,4,0
3973.06,0,3,5,3
3973.06,1,3,4,2
3973.06,1,2,3,4
3973.06,2,2,3,4
3973.06,3,1,1,3
3973.06,3,1,0,2
3973.06,3,2,0,3
3973.06,4,3,2,5
3973.06,6,4,3,6
3973.06,6,5,5,7
3973.06,5,3,3,6
3973.06,4,1,1,3
3973.06,3,2,2,3
3973.06,4,3,2,2
3973.07,2,1,1,2
3973.07,0,-3,-2,2
3973.07,0,-6,-4,4
3973.07,3,-4,-2,5
3973.07,6,-1,-1,8
3973.07,8,0,0,8
3973.07,9,4,4,9
3973.07,9,4,2,6
3973.07,8,5,3,3
3973.07,7,7,2,1
3973.07,3,5,0,-1
3973.07,3,6,2,-1
3973.07,3,9,4,-1
3973.07,2,8,4,-2
3973.07,0,8,4,-3
3973.07,0,10,8,-1
3973.07,0,10,11,0
3973.08,-2,6,9,0
3973.08,-3,3,5,-2
3973.08,-5,-1,0,-4
3973.08,-6,-4,-3,-4
3973.08,-4,-2,-1,0
3973.08,0,2,2,2
3973.08,3,4,4,5
3973.08,6,7,7,6
3973.08,6,6,3,3
3973.08,4,2,-1,0
3973.08,4,2,-1,0
3973.08,4,2,1,4
3973.08,7,5,2,4
3973.08,7,4,2,3
3973.08,4,3,1,3
3973.08,5,4,3,4
3973.08,5,5,4,6
3973.08,5,5,5,7
3973.09,4,1,2,4
3973.09,0,-6,-4,2
3973.09,0,-6,-4,3
3973.09,3,-3,-3,5
3973.09,5,0,2,10
3973.09,8,1,3,9
3973.09,8,0,0,6
3973.09,6,3,1,5
3973.09,8,5,3,3
3973.09,5,4,0,0
3973.09,3,2,-3,-3
3973.09,3,5,-2,-4
3973.09,5,11,3,-1
3973.09,6,14,10,2
3973.09,6,15,13,3
3973.09,2,10,9,-1
3973.09,0,8,6,-4
3973.1,-3,3,0,-8
3973.1,-7,0,-3,-9
3973.1,-7,-2,-1,-4
3973.1,-3,1,3,2
3973.1,2,4,6,5
3973.1,4,4,4,3
3973.1,3,3,2,2
3973.1,2,1,1,1
3973.1,2,1,2,4
3973.1,5,5,5,6
3973.1,6,5,5,6
3973.1,5,2,2,3
3973.1,3,1,0,1
3973.1,3,1,0,2
3973.1,3,2,1,4
3973.1,4,3,3,4
3973.1,4,2,1,2
3973.11,2,1,0,1
3973.11,2,0,0,2
3973.11,2,-2,-1,6
3973.11,5,0,0,7
3973.11,7,0,0,6
3973.11,6,-1,0,6
3973.11,8,1,3,8
3973.11,8,4,4,8
3973.11,9,7,7,7
3973.11,7,7,6,3
3973.11,3,4,3,0
3973.11,0,1,0,-1
3973.11,0,3,1,-2
3973.11,0,5,4,-1
3973.11,0,6,4,-2
3973.11,0,5,1,-4
3973.11,-1,6,4,-3
3973.11,0,9,7,-1
3973.12,0,8,7,0
3973.12,0,7,7,0
3973.12,-2,2,2,-1
3973.12,-2,-1,-3,-4
3973.12,-2,-1,-3,-2
3973.12,1,2,-1,0
3973.12,3,3,2,4
3973.12,6,7,7,8
3973.12,8,8,8,8
3973.12,8,7,7,7
3973.12,5,3,2,2
3973.12,2,1,0,2
3973.12,2,1,0,2
3973.12,4,3,2,4
3973.12,4,3,2,3
3973.12,3,2,2,3
3973.12,2,0,1,2
3973.13,1,-1,-1,1
3973.13,1,-3,-3,2
3973.13,2,-5,-6,4
3973.13,5,-3,-4,5
3973.13,8,0,-2,6
3973.13,8,0,-3,7
3973.13,12,7,4,9
3973.13,13,9,6,9
3973.13,10,9,8,8
3973.13,7,8,10,9
3973.13,5,6,8,5
3973.13,3,3,5,2
3973.13,1,4,3,-3
3973.13,-4,1,0,-8
3973.13,-6,1,0,-9
3973.13,-5,3,2,-5
3973.13,-2,7,3,-5
3973.14,-1,8,5,-4
3973.14,-2,6,4,-2
3973.14,-1,5,4,0
3973.14,0,2,4,2
3973.14,1,3,4,3
3973.14,2,3,2,1
3973.14,1,2,2,1
3973.14,2,2,1,1
3973.14,2,1,0,0
3973.14,4,3,0,1
3973.14,4,4,2,3
3973.14,5,5,3,5
3973.14,6,6,6,7
3973.14,7,5,4,6
3973.14,5,2,2,6
3973.14,5,4,5,6
3973.14,4,4,5,4
3973.14,3,3,4,5
3973.15,3,1,1,2
3973.15,0,-4,-3,1
3973.15,0,-7,-5,2
3973.15,0,-6,-3,5
3973.15,4,-2,0,8
3973.15,7,0,3,11
3973.15,11,3,3,9
3973.15,9,3,0,2
3973.15,6,4,0,1
3973.15,6,5,0,1
3973.15,7,7,0,0
3973.15,5,9,4,1
3973.15,5,10,6,0
3973.15,1,8,5,-1
3973.15,0,9,8,-1
3973.15,0,8,8,-2
3973.15,-2,6,5,-5
3973.16,-6,2,0,-7
3973.16,-6,0,-1,-8
3973.16,-5,1,0,-4
3973.16,-2,2,2,0
3973.16,3,5,5,4
3973.16,4,5,3,3
3973.16,2,4,4,4
3973.16,3,3,4,5
3973.16,4,1,1,2
3973.16,3,0,0,3
3973.16,4,2,3,6
3973.16,6,4,3,5
3973.16,6,4,4,6
3973.16,6,4,3,6
3973.16,6,4,3,5
3973.16,6,4,3,3
3973.16,5,3,2,3
3973.16,3,1,0,2
3973.17,2,0,-2,0
3973.17,0,-7,-7,0
3973.17,0,-6,-6,3
3973.17,3,-3,-3,5
3973.17,5,0,0,9
3973.17,9,2,3,10
3973.17,11,6,6,11
3973.17,11,8,6,9
3973.17,9,6,3,2
3973.17,5,4,1,0
3973.17,2,4,4,0
3973.17,2,6,5,0
3973.17,1,8,6,0
3973.17,0,9,6,-3
3973.17,-1,7,3,-6
3973.17,-4,5,1,-8
3973.17,-5,4,2,-6
3973.18,-4,5,3,-2
3973.18,-1,5,4,-1
3973.18,0,5,4,1
3973.18,0,2,2,0
3973.18,0,1,2,1
3973.18,2,3,4,3
3973.18,2,3,6,6
3973.18,3,3,5,6
3973.18,3,2,2,4
3973.18,3,1,2,3
3973.18,4,2,1,3
3973.18,4,1,0,3
3973.18,5,2,0,2
3973.18,3,1,0,2
3973.18,3,1,0,2
3973.18,3,1,0,3
3973.18,5,2,1,3
3973.19,5,3,1,4
3973.19,5,2,1,4
3973.19,4,-2,-1,5
3973.19,5,-3,-2,6
3973.19,6,0,0,7
3973.19,6,0,1,8
3973.19,9,3,2,8
3973.19,8,3,1,5
3973.19,6,4,2,3
3973.19,5,5,3,3
3973.19,4,6,4,2
3973.19,4,5,2,0
3973.19,4,7,2,-2
3973.19,2,8,3,-3
3973.19,0,9,7,-2
3973.19,0,9,7,-1
3973.19,0,8,8,-2
3973.19,-2,7,5,-3
3973.2,-3,4,3,-3
3973.2,-3,2,1,-4
3973.2,-4,0,-1,-3
3973.2,-2,0,0,-1
3973.2,0,1,1,3
3973.2,3,3,2,4
3973.2,5,4,3,4
3973.2,5,3,2,3
3973.2,4,2,2,3
3973.2,4,2,2,3
3973.2,3,3,2,4
3973.2,5,3,2,3
3973.2,4,4,4,4
3973.2,5,4,5,5
3973.2,6,4,5,5
3973.2,4,4,2,2
3973.2,3,2,1,2
3973.21,2,0,-1,0
3973.21,0,-3,-2,3
3973.21,1,-4,-2,6
3973.21,6,0,0,7
3973.21,7,0,0,7
3973.21,7,0,0,6
3973.21,6,0,1,8
3973.21,9,4,3,8
3973.21,10,7,4,5
3973.21,7,6,4,4
3973.21,5,5,3,2
3973.21,4,7,6,2
3973.21,2,7,5,-1
3973.21,-2,2,0,-6
3973.21,-3,4,0,-7
3973.21,-4,4,1,-7
3973.21,-2,6,2,-6
3973.21,-1,7,4,-4
3973.22,0,10,8,0
3973.22,2,11,9,1
3973.22,1,6,3,-1
3973.22,0,2,0,-2
3973.22,0,2,1,0
3973.22,0,1,0,0
3973.22,0,0,2,4
3973.22,4,3,4,7
3973.22,7,4,3,5
3973.22,6,3,1,3
3973.22,5,2,0,4
3973.22,4,1,0,2
3973.22,4,1,-1,1
3973.22,4,1,0,1
3973.22,4,3,0,3
3973.22,6,7,7,7
3973.22,8,7,7,6
3973.23,5,3,1,1
3973.23,0,-2,0,4
3973.23,0,-4,2,7
3973.23,0,-5,0,7
3973.23,0,-5,0,7
3973.23,3,-3,1,11
3973.23,9,0,2,10
3973.23,9,1,0,6
3973.23,8,2,-1,1
3973.23,6,5,2,5
3973.23,9,6,2,4
3973.23,9,9,2,2
3973.23,9,11,3,-2
3973.23,3,12,6,-4
3973.23,-1,9,7,-2
3973.23,-2,6,6,-2
3973.23,-3,3,3,-3
3973.23,-3,1,0,-7
3973.24,-6,0,-2,-10
3973.24,-8,0,0,-6
3973.24,-5,2,4,1
3973.24,2,6,6,5
3973.24,5,6,5,3
3973.24,5,7,5,3
3973.24,3,6,7,3
3973.24,3,4,5,2
3973.24,0,1,3,1
3973.24,-1,-2,0,0
3973.24,-2,-3,-3,0
3973.24,0,-2,-1,1
3973.24,4,2,2,6
3973.24,10,10,8,11
3973.24,15,14,10,11
3973.24,13,10,6,7
3973.24,11,8,5,6
3973.25,6,2,0,1
3973.25,-1,-8,-7,0
3973.25,-1,-9,-7,1
3973.25,1,-4,-3,5
3973.25,4,-3,-2,5
3973.25,7,0,-1,5
3973.25,7,0,-1,3
3973.25,5,0,0,5
3973.25,8,3,1,2
3973.25,7,7,3,1
3973.25,5,10,6,1
3973.25,4,12,9,1
3973.25,4,11,7,-2
3973.25,0,4,2,-3
3973.25,-1,6,3,-2
3973.25,0,6,4,0
3973.25,0,4,3,0
3973.26,0,2,0,0
3973.26,2,2,1,0
3973.26,0,0,-2,-2
3973.26,-2,-4,-2,0
3973.26,0,-1,-1,1
3973.26,2,0,2,5
3973.26,3,3,3,2
3973.26,0,-1,-2,-2
3973.26,-3,-3,-1,-1
3973.26,0,2,3,3
3973.26,5,9,9,7
3973.26,14,24,21,13
3973.26,22,37,33,17
3973.26,18,29,26,10
3973.26,6,9,6,-1
3973.26,-5,-6,-6,-7
3973.26,-10,-16,-17,-14
3973.26,-13,-17,-19,-13
3973.27,-10,-14,-13,-5
3973.27,-4,-9,-6,3
3973.27,4,-3,-1,8
3973.27,8,0,0,9
3973.27,8,0,1,9
3973.27,8,1,3,10
3973.27,9,4,6,12
3973.27,13,10,10,12
3973.27,14,12,11,11
3973.27,10,7,4,2
3973.27,4,6,5,2
3973.27,5,11,9,3
3973.27,3,9,9,1
3973.27,0,6,5,-1
3973.27,-2,3,3,-4
3973.27,-3,3,0,-9
3973.27,-7,1,-3,-13
3973.28,-11,-3,-8,-14
3973.28,-10,-3,-7,-10
3973.28,-3,2,0,-1
3973.28,5,11,8,4
3973.28,11,17,12,9
3973.28,13,18,15,12
3973.28,11,13,13,10
3973.28,5,4,5,3
3973.28,-3,-7,-4,-3
3973.28,-8,-9,-3,1
3973.28,-6,-11,-3,7
3973.28,0,-14,-8,9
3973.28,10,-5,-4,12
3973.28,15,0,-4,9
3973.28,12,-1,-10,0
3973.28,8,-2,-13,-4
3973.28,8,1,-8,-2
3973.28,10,11,4,6
3973.29,14,15,11,10
3973.29,14,13,12,15
3973.29,18,17,14,13
3973.29,15,13,8,4
3973.29,2,0,-1,-3
3973.29,-7,-9,-8,-8
3973.29,-13,-15,-8,-4
3973.29,-7,-4,1,2
3973.29,2,10,16,10
3973.29,8,14,14,5
3973.29,3,11,10,-3
3973.29,-3,9,8,-6
3973.29,-6,8,7,-7
3973.29,-6,8,8,-6
3973.29,-5,12,12,-1
3973.29,-2,10,10,0
3973.29,-2,5,3,-4
3973.3,-5,0,-1,-5
3973.3,-5,-3,-2,-2
3973.3,-2,-2,-2,3
3973.3,5,0,2,9
3973.3,9,1,3,10
3973.3,10,3,3,9
3973.3,7,2,2,5
3973.3,2,-1,2,5
3973.3,2,2,6,7
3973.3,5,6,6,3
3973.3,3,8,5,0
3973.3,1,5,1,-4
3973.3,0,-2,-11,-8
3973.3,-1,-4,-12,-6
3973.3,0,-4,-8,-1
3973.3,5,2,1,7
3973.3,10,4,4,12
3973.3,13,6,7,19
3973.31,20,6,2,17
3973.31,24,6,-5,5
3973.31,11,-2,-14,-7
3973.31,-3,-9,-8,-4
3973.31,-3,-2,5,10
3973.31,5,3,9,12
3973.31,8,6,10,11
3973.31,8,9,12,9
3973.31,3,4,6,3
3973.31,-1,1,4,0
3973.31,1,10,11,2
3973.31,2,13,11,-3
3973.31,-2,11,8,-7
3973.31,-7,5,2,-15
3973.31,-15,0,-2,-19
3973.31,-17,0,0,-11
3973.31,-8,5,4,-4
3973.32,-1,4,1,-3
3973.32,0,3,2,4
3973.32,7,4,3,8
3973.32,11,4,0,7
3973.32,12,6,3,12
3973.32,16,7,4,11
3973.32,15,6,3,10
3973.32,12,8,8,11
3973.32,7,0,-2,-1
3973.32,-4,-7,-7,-4
3973.32,-2,-2,0,2
3973.32,3,3,6,8
3973.32,6,5,3,2
3973.32,0,-2,-4,-1
3973.32,-3,-11,-13,-4
3973.32,-2,-13,-14,-2
3973.32,4,-3,-3,8
3973.33,12,5,6,15
3973.33,14,2,1,12
3973.33,11,1,2,10
3973.33,9,1,3,10
3973.33,7,0,2,6
3973.33,5,1,1,2
3973.33,3,6,5,2
3973.33,3,11,11,5
3973.33,9,19,13,1
3973.33,9,24,15,1
3973.33,7,15,6,-5
3973.33,-2,4,-4,-17
3973.33,-13,0,-4,-14
3973.33,-8,5,-1,-17
3973.33,-11,7,5,-11
3973.33,-6,10,9,-5
3973.33,-3,11,13,2
3973.33,1,12,15,10
3973.34,6,9,14,16
3973.34,8,-2,3,17
3973.34,10,-9,-7,8
3973.34,4,-15,-14,3
3973.34,-1,-19,-15,4
3973.34,2,-17,-14,7
3973.34,5,-15,-13,8
3973.34,11,-3,-4,7
3973.34,11,4,0,0
3973.34,0,5,8,3
3973.34,4,17,21,9
3973.34,5,18,20,3
3973.34,-2,10,12,0
3973.34,0,19,21,7
3973.34,10,26,25,12
3973.34,12,19,11,0
3973.34,-1,-1,-5,-9
3973.35,-12,-16,-14,-7
3973.35,-9,-16,-14,-5
3973.35,-3,-7,-6,2
3973.35,4,-4,-8,-2
3973.35,1,-6,-12,-4
3973.35,6,4,-1,5
3973.35,13,9,1,9
3973.35,18,14,5,6
3973.35,17,21,7,-8
3973.35,0,15,8,-11
3973.35,-7,13,14,-2
3973.35,-4,10,14,5
3973.35,1,10,12,5
3973.35,2,11,17,12
3973.35,8,12,18,20
3973.35,11,5,8,13
3973.35,7,0,-1,2
3973.35,0,-10,-13,-8
3973.36,-9,-20,-20,-13
3973.36,-13,-22,-21,-13
3973.36,-10,-13,-12,-3
3973.36,0,-4,-2,6
3973.36,11,5,1,8
3973.36,15,8,-2,1
3973.36,11,7,-7,-6
3973.36,4,4,-5,-5
3973.36,2,1,-3,-2
3973.36,0,3,5,8
3973.36,9,9,10,9
3973.36,10,13,14,12
3973.36,14,23,29,26
3973.36,22,23,28,27
3973.36,17,11,12,12
3973.36,3,-4,-3,-5
3973.36,-12,-17,-15,-19
3973.37,-25,-23,-13,-10
3973.37,-14,-14,-4,0
3973.37,-6,-7,5,15
3973.37,10,6,13,24
3973.37,23,14,11,14
3973.37,15,10,4,3
3973.37,4,-1,-7,-6
3973.37,-2,-3,-7,-4
3973.37,0,1,5,12
3973.37,16,14,14,14
3973.37,17,17,12,8
3973.37,12,13,1,-9
3973.37,-2,3,-5,-13
3973.37,-3,3,-7,-17
3973.37,-8,2,-5,-18
3973.37,-10,10,9,-6
3973.37,-1,18,18,6
3973.38,10,17,11,6
3973.38,14,13,2,4
3973.38,13,2,-12,-7
3973.38,0,-8,-20,-17
3973.38,-15,-24,-31,-30
3973.38,-30,-31,-26,-25
3973.38,-32,-23,-3,0
3973.38,-13,-7,18,28
3973.38,13,10,29,36
3973.38,25,21,28,27
3973.38,21,25,30,24
3973.38,22,32,38,32
3973.38,33,38,35,28
3973.38,32,35,20,5
3973.38,4,5,-11,-27
3973.38,-25,-19,-28,-38
3973.38,-31,-21,-21,-22
3973.39,-15,-10,-9,0
3973.39,4,-1,-1,9
3973.39,12,2,1,15
3973.39,15,0,-6,3
3973.39,2,-10,-14,-6
3973.39,-5,-12,-10,0
3973.39,3,-4,-4,9
3973.39,12,2,2,13
3973.39,16,12,16,23
3973.39,24,20,22,20
3973.39,16,17,19,15
3973.39,13,19,16,2
3973.39,-2,3,1,-10
3973.39,-13,-6,-10,-20
3973.39,-19,-13,-19,-28
3973.39,-22,-10,-13,-27
3973.39,-20,0,-2,-21
3973.39,-15,11,18,5
3973.4,9,30,30,11
3973.4,11,24,18,-3
3973.4,-4,9,10,-3
3973.4,0,16,20,12
3973.4,13,22,27,27
3973.4,24,19,19,29
3973.4,28,7,2,19
3973.4,18,-9,-17,8
3973.4,9,-22,-28,-1
3973.4,0,-25,-27,0
3973.4,6,-15,-15,4
3973.4,4,-16,-22,-15
3973.4,-20,-29,-26,-24
3973.4,-29,-26,-11,-3
3973.4,-4,0,7,7
3973.4,6,16,26,27
3973.4,23,26,30,28
3973.41,16,10,12,14
3973.41,7,-1,1,9
3973.41,10,2,0,2
3973.41,7,1,-5,0
3973.41,10,5,0,13
3973.41,27,15,0,8
3973.41,18,5,-7,3
3973.41,14,0,-8,7
3973.41,15,2,-5,2
3973.41,4,-5,-7,0
3973.41,1,0,-2,-3
3973.41,0,10,7,-12
3973.41,-13,8,11,-9
3973.41,-11,11,17,-2
3973.41,-4,14,13,-5
3973.41,-4,15,10,-15
3973.41,-12,15,17,-11
3973.41,-15,9,11,-11
3973.42,-17,2,3,-15
3973.42,-18,-5,0,-6
3973.42,-7,2,10,14
3973.42,16,18,20,20
3973.42,17,10,6,1
3973.42,-1,0,6,10
3973.42,6,5,12,19
3973.42,14,7,8,13
3973.42,11,5,4,6
3973.42,5,2,1,3
3973.42,0,-6,-3,7
3973.42,6,-4,-2,13
3973.42,12,-4,-6,6
3973.42,7,-4,-7,1
3973.42,8,6,0,0
3973.42,12,19,7,-4
3973.42,8,19,3,-16
3973.43,-9,-1,-15,-28
3973.43,-27,-27,-33,-34
3973.43,-30,-29,-25,-15
3973.43,-6,-3,-5,0
3973.43,9,12,7,8
3973.43,19,26,22,21
3973.43,26,24,20,22
3973.43,23,15,10,14
3973.43,11,3,1,0
3973.43,-4,-3,5,4
3973.43,-7,-2,14,14
3973.43,2,4,11,4
3973.43,-2,3,7,-1
3973.43,-3,7,7,0
3973.43,3,17,17,12
3973.43,17,21,15,13
3973.43,20,21,13,12
3973.43,16,16,11,4
3973.44,1,-1,-10,-17
3973.44,-23,-26,-25,-19
3973.44,-23,-26,-18,-7
3973.44,-5,-9,-3,3
3973.44,0,-2,1,4
3973.44,0,-5,-1,2
3973.44,5,7,11,16
3973.44,18,14,14,20
3973.44,19,6,0,4
3973.44,8,3,0,8
3973.44,12,5,-2,2
3973.44,10,9,0,-4
3973.44,3,12,5,-5
3973.44,-3,7,10,6
3973.44,2,0,5,16
3973.44,12,-4,-5,11
3973.44,8,-13,-18,-3
3973.45,-3,-19,-16,2
3973.45,4,-8,-7,4
3973.45,5,-6,-6,3
3973.45,5,-2,-9,-7
3973.45,-3,-3,-8,-10
3973.45,-1,8,7,3
3973.45,10,16,15,13
3973.45,17,22,23,22
3973.45,22,23,25,27
3973.45,25,22,16,8
3973.45,7,12,9,-2
3973.45,-2,4,4,-1
3973.45,1,8,0,-12
3973.45,-6,8,1,-17
3973.45,-12,1,-2,-17
3973.45,-17,-8,-11,-22
3973.45,-24,-15,-12,-17
3973.45,-15,-7,-7,-14
3973.46,-12,-2,-1,-9
3973.46,-5,8,9,3
3973.46,9,19,17,15
3973.46,19,20,15,15
3973.46,19,14,8,7
3973.46,6,5,3,2
3973.46,0,0,0,-4
3973.46,-13,-6,7,9
3973.46,-3,-6,12,22
3973.46,10,0,9,17
3973.46,10,2,7,13
3973.46,8,4,9,12
3973.46,8,6,8,11
3973.46,8,3,4,8
3973.46,8,3,2,9
3973.46,13,7,3,8
3973.46,11,1,-5,0
3973.47,0,-10,-15,-4
3973.47,-1,-12,-14,-1
3973.47,3,-8,-13,-3
3973.47,1,-8,-9,6
3973.47,13,0,-5,5
3973.47,8,-4,-12,-3
3973.47,3,0,-1,4
3973.47,9,5,8,22
3973.47,23,11,11,22
3973.47,20,8,5,10
3973.47,11,9,2,-6
3973.47,-3,4,-1,-18
3973.47,-15,3,1,-20
3973.47,-14,15,10,-23
3973.47,-19,18,18,-11
3973.47,-6,28,27,0
3973.47,2,23,14,-11
3973.48,-8,8,2,-14
3973.48,-9,2,-1,-8
3973.48,-7,-4,-10,-12
3973.48,-12,-14,-13,-10
3973.48,-10,-11,-4,3
3973.48,0,-5,2,13
3973.48,11,5,10,22
3973.48,22,15,18,28
3973.48,27,14,13,23
3973.48,19,4,-1,2
3973.48,2,-5,-9,-11
3973.48,-10,-5,2,7
3973.48,6,5,12,18
3973.48,17,12,16,20
3973.48,17,6,0,0
3973.48,0,0,-5,-9
3973.48,-6,-1,-1,-5
3973.48,-8,-10,-8,0
3973.49,-2,-16,-14,4
3973.49,10,-2,-3,11
3973.49,18,10,9,18
3973.49,15,1,4,18
3973.49,14,0,6,25
3973.49,22,5,7,22
3973.49,22,9,7,17
3973.49,15,2,-4,-2
3973.49,0,-4,-11,-15
3973.49,-13,-7,-8,-13
3973.49,-10,1,1,-9
3973.49,-8,6,2,-13
3973.49,-10,9,5,-13
3973.49,-8,13,11,-10
3973.49,-5,16,13,-8
3973.49,-5,14,8,-13
3973.49,-13,9,11,-4
3973.5,-3,16,21,9
3973.5,7,19,22,14
3973.5,7,8,7,3
3973.5,-1,-4,-5,-5
3973.5,-7,-11,-10,-3
3973.5,0,-4,-3,3
3973.5,5,0,-3,0
3973.5,2,-2,-8,-7
3973.5,-3,-4,-9,-10
3973.5,-3,2,0,2
3973.5,8,8,6,11
3973.5,15,7,5,13
3973.5,14,6,3,8
3973.5,9,5,6,11
3973.5,15,14,13,16
3973.5,17,15,13,10
3973.5,5,0,0,2
3973.5,-6,-19,-13,3
3973.51,-1,-22,-16,11
3973.51,14,-8,-8,17
3973.51,21,0,-7,11
3973.51,19,1,-4,13
3973.51,24,12,1,8
3973.51,15,9,0,1
3973.51,3,1,-7,-18
3973.51,-16,-3,-3,-13
3973.51,-8,5,0,-12
3973.51,-4,9,0,-17
3973.51,-7,14,9,-9
3973.51,-6,16,16,-5
3973.51,-6,14,18,0
3973.51,-5,12,20,8
3973.51,3,16,23,12
3973.51,7,15,16,6
3973.51,4,11,7,-3
3973.52,-3,3,1,-8
3973.52,-8,0,-1,-11
3973.52,-14,-3,0,-8
3973.52,-11,-1,2,-5
3973.52,-10,0,7,0
3973.52,-7,0,9,8
3973.52,2,3,9,12
3973.52,7,4,10,17
3973.52,15,9,9,16
3973.52,16,9,8,13
3973.52,10,1,-1,2
3973.52,2,-5,-7,0
3973.52,0,-4,-7,-1
3973.52,1,-1,-4,0
3973.52,3,0,-3,1
3973.52,5,0,-4,0
3973.52,2,-3,-4,1
3973.52,0,-10,-8,7
3973.53,8,-6,-4,13
3973.53,15,0,1,18
3973.53,18,0,-2,15
3973.53,16,0,-2,11
3973.53,14,3,1,9
3973.53,13,8,4,8
3973.53,10,9,6,6
3973.53,7,7,4,-1
3973.53,-1,3,-2,-12
3973.53,-7,4,3,-8
3973.53,-5,7,6,-4
3973.53,1,14,10,-3
3973.53,2,18,15,-1
3973.53,1,16,11,-5
3973.53,-2,12,7,-10
3973.53,-7,6,3,-10
3973.53,-9,2,1,-10
3973.54,-10,-1,-1,-7
3973.54,-7,-2,-1,-2
3973.54,-1,1,2,1
3973.54,2,2,3,4
3973.54,3,3,4,5
3973.54,5,2,3,5
3973.54,5,2,4,8
3973.54,7,3,3,8
3973.54,7,2,1,7
3973.54,7,2,0,6
3973.54,7,2,0,6
3973.54,7,3,2,7
3973.54,8,3,1,4
3973.54,7,4,0,1
3973.54,3,1,0,0
3973.54,2,0,-1,2
3973.54,1,-5,-5,2
3973.55,0,-12,-10,4
3973.55,2,-11,-8,7
3973.55,10,-2,0,14
3973.55,13,0,1,16
3973.55,17,6,5,15
3973.55,16,6,3,9
3973.55,11,7,6,7
3973.55,7,7,6,7
3973.55,9,8,6,4
3973.55,5,6,4,0
3973.55,2,9,6,-4
3973.55,-2,8,4,-11
3973.55,-8,8,7,-12
3973.55,-9,10,7,-12
3973.55,-9,10,8,-10
3973.55,-8,11,9,-8
3973.55,-6,10,8,-8
3973.55,-6,7,5,-6
3973.56,-7,0,0,-4
3973.56,-3,0,0,0
3973.56,0,0,0,0
3973.56,2,0,-1,1
3973.56,3,0,0,4
3973.56,7,3,4,9
3973.56,11,7,6,11
3973.56,12,7,4,7
3973.56,7,3,2,5
3973.56,4,2,0,3
3973.56,4,4,4,4
3973.56,5,2,1,3
3973.56,2,0,0,1
3973.56,0,-1,0,0
3973.56,0,-3,-2,2
3973.56,3,0,0,5
3973.56,6,0,0,10
3973.57,10,-2,-2,10
3973.57,10,-5,-5,11
3973.57,11,-3,-3,11
3973.57,11,-1,0,13
3973.57,16,6,4,13
3973.57,14,5,3,10
3973.57,10,3,1,4
3973.57,3,0,-1,0
3973.57,-1,-2,-2,-2
3973.57,-1,2,2,0
3973.57,2,11,8,0
3973.57,3,17,13,0
3973.57,3,18,12,-5
3973.57,-3,13,7,-10
3973.57,-7,11,7,-12
3973.57,-10,9,7,-12
3973.57,-13,3,5,-8
3973.57,-8,3,4,-5
3973.58,-4,2,2,-2
3973.58,-1,1,0,-3
3973.58,-1,-1,-3,-2
3973.58,1,1,-1,0
3973.58,2,0,0,1
3973.58,3,2,2,3
3973.58,4,4,7,11
3973.58,9,5,7,12
3973.58,8,-1,-4,2
3973.58,3,-3,-6,-3
3973.58,0,2,1,0
3973.58,1,3,1,2
3973.58,5,7,7,9
3973.58,13,14,14,16
3973.58,17,15,13,11
3973.58,9,6,5,4
3973.58,-1,-6,0,7
3973.59,0,-6,3,14
3973.59,5,-5,3,13
3973.59,2,-10,-3,6
3973.59,-1,-16,-13,-1
3973.59,-3,-17,-21,-7
3973.59,0,-13,-22,-7
3973.59,9,4,-9,-2
3973.59,18,23,12,9
3973.59,23,29,18,10
3973.59,18,27,19,5
3973.59,11,23,17,2
3973.59,5,22,20,2
3973.59,2,22,24,3
3973.59,-1,18,23,0
3973.59,-8,7,9,-12
3973.59,-23,-8,-5,-22
3973.59,-30,-18,-14,-24
3973.59,-27,-20,-19,-22
3973.6,-17,-12,-16,-16
3973.6,-4,1,-1,-2
3973.6,5,12,12,10
3973.6,10,13,17,18
3973.6,14,15,26,28
3973.6,16,13,28,29
3973.6,11,6,23,25
3973.6,5,-2,8,11
3973.6,-2,-15,-15,-11
3973.6,-13,-22,-28,-19
3973.6,-10,-15,-22,-12
3973.6,2,0,-5,2
3973.6,13,6,0,6
3973.6,15,10,3,7
3973.6,14,11,2,5
3973.6,10,3,-5,2
3973.6,6,-5,-7,8
3973.61,13,-4,-6,13
3973.61,17,0,-4,13
3973.61,17,-1,-6,11
3973.61,19,2,-3,13
3973.61,21,5,-4,7
3973.61,19,15,10,12
3973.61,16,16,12,9
3973.61,9,12,10,4
3973.61,1,2,0,-5
3973.61,-3,7,9,-1
3973.61,-3,9,15,1
3973.61,-3,7,11,-2
3973.61,-7,3,3,-7
3973.61,-9,-4,-9,-17
3973.61,-14,-10,-19,-25
3973.61,-15,-11,-22,-25
3973.61,-8,1,-6,-9
3973.62,3,16,21,18
3973.62,17,23,28,24
3973.62,16,19,31,25
3973.62,7,11,34,27
3973.62,-4,-5,18,14
3973.62,-15,-17,4,3
3973.62,-19,-21,-4,-2
3973.62,-16,-18,-6,-3
3973.62,-11,-13,-8,-3
3973.62,-4,-12,-14,-5
3973.62,1,-10,-21,-8
3973.62,9,-1,-22,-8
3973.62,20,9,-21,-11
3973.62,24,17,-16,-7
3973.62,27,29,6,12
3973.62,35,37,25,24
3973.62,30,23,15,19
3973.62,17,6,6,14
3973.63,8,0,9,16
3973.63,5,-2,12,17
3973.63,-1,-12,0,7
3973.63,-5,-13,-2,4
3973.63,-7,-20,-14,-4
3973.63,-8,-14,-6,0
3973.63,-6,-8,4,8
3973.63,-2,-3,9,11
3973.63,2,3,8,4
3973.63,3,10,8,-1
3973.63,0,6,-7,-18
3973.63,-1,10,-10,-23
3973.63,1,21,2,-11
3973.63,11,30,13,-1
3973.63,15,29,16,0
3973.63,12,28,22,6
3973.63,7,21,22,7
3973.64,-1,5,12,4
3973.64,-6,-3,8,5
3973.64,-5,-4,3,2
3973.64,-7,-14,-13,-13
3973.64,-16,-21,-22,-17
3973.64,-11,-13,-15,-5
3973.64,2,-1,-7,1
3973.64,12,10,3,8
3973.64,15,11,7,10
3973.64,10,1,-3,2
3973.64,2,-7,-9,0
3973.64,5,-3,-10,-1
3973.64,10,6,-2,2
3973.64,13,11,5,9
3973.64,15,13,8,9
3973.64,13,14,15,14
3973.64,9,13,26,26
3973.65,5,-1,14,18
3973.65,-3,-15,0,8
3973.65,-6,-22,-14,-1
3973.65,-5,-17,-11,3
3973.65,5,-2,-4,6
3973.65,10,4,0,6
3973.65,11,8,1,2
3973.65,8,5,-2,-1
3973.65,5,4,-3,-3
3973.65,7,8,-2,-5
3973.65,7,15,4,-1
3973.65,8,22,15,3
3973.65,9,27,26,9
3973.65,6,20,20,0
3973.65,-5,3,1,-13
3973.65,-16,-3,-2,-15
3973.65,-13,0,0,-10
3973.65,-11,0,1,-7
3973.66,-10,-2,0,-5
3973.66,-8,-3,-1,-3
3973.66,-6,-7,-6,-6
3973.66,-6,-5,-1,1
3973.66,1,0,0,5
3973.66,9,11,11,11
3973.66,10,12,16,15
3973.66,6,1,4,8
3973.66,7,8,17,19
3973.66,12,17,31,30
3973.66,9,3,15,13
3973.66,-3,-10,-1,1
3973.66,-7,-12,-7,-3
3973.66,-6,-8,-5,-1
3973.66,-4,-11,-13,-6
3973.66,-3,-18,-31,-17
3973.66,-2,-17,-33,-12
3973.67,9,-4,-23,-1
3973.67,25,13,-6,10
3973.67,33,25,12,22
3973.67,33,28,25,31
3973.67,32,28,30,33
3973.67,25,20,23,21
3973.67,13,10,15,10
3973.67,-1,0,8,2
3973.67,-11,-13,-10,-15
3973.67,-18,-17,-20,-24
3973.67,-18,-14,-28,-32
3973.67,-12,0,-12,-19
3973.67,0,17,6,-7
3973.67,5,19,8,-4
3973.67,6,26,25,12
3973.67,11,24,24,11
3973.67,5,9,3,-9
3973.67,-11,-7,-7,-13
3973.68,-11,-4,-2,-4
3973.68,-2,6,10,7
3973.68,3,10,18,13
3973.68,4,8,17,11
3973.68,0,-1,2,0
3973.68,-6,-9,-7,-5
3973.68,-5,-6,-5,-1
3973.68,0,0,0,2
3973.68,4,2,0,3
3973.68,5,3,2,5
3973.68,7,7,6,7
3973.68,8,9,8,8
3973.68,8,6,5,4
3973.68,6,8,6,4
3973.68,4,3,2,1
3973.68,0,-3,-3,0
3973.68,0,-9,-8,1
3973.69,1,-6,-4,6
3973.69,7,-2,0,10
3973.69,7,-3,-3,8
3973.69,9,0,0,8
3973.69,10,4,2,8
3973.69,11,8,5,7
3973.69,10,9,7,5
3973.69,8,10,8,4
3973.69,6,11,11,4
3973.69,4,12,10,0
3973.69,-2,7,6,-6
3973.69,-8,2,4,-8
3973.69,-10,1,1,-9
3973.69,-8,7,8,-3
3973.69,-4,6,6,-4
3973.69,-5,1,-2,-10
3973.69,-6,2,-2,-9
3973.7,-4,4,0,-4
3973.7,1,6,4,0
3973.7,5,13,12,4
3973.7,4,11,15,6
3973.7,0,1,-1,-4
3973.7,-5,-7,-12,-9
3973.7,-2,-4,-10,-4
3973.7,4,1,-3,3
3973.7,10,7,4,11
3973.7,15,11,9,14
3973.7,17,12,8,11
3973.7,15,13,9,9
3973.7,9,10,14,12
3973.7,4,2,8,7
3973.7,0,-2,2,3
3973.7,0,-1,0,1
3973.7,-1,-10,-11,-4
3973.7,-5,-15,-19,-7
3973.71,-2,-10,-13,0
3973.71,5,-4,-6,7
3973.71,13,2,-1,13
3973.71,20,12,6,13
3973.71,19,10,2,6
3973.71,11,6,0,1
3973.71,8,11,9,8
3973.71,10,16,19,14
3973.71,6,6,7,0
3973.71,-2,0,-2,-9
3973.71,-8,0,-1,-11
3973.71,-7,4,1,-8
3973.71,-4,8,7,-4
3973.71,0,12,10,-3
3973.71,-2,9,6,-5
3973.71,-7,0,-1,-7
3973.71,-7,-1,0,-4
3973.72,-4,-2,0,1
3973.72,1,1,3,6
3973.72,4,5,9,10
3973.72,5,6,14,14
3973.72,4,4,14,14
3973.72,2,0,8,9
3973.72,0,-4,0,1
3973.72,-2,-8,-10,-6
3973.72,-3,-4,-6,-3
3973.72,1,-1,-4,0
3973.72,5,2,-2,1
3973.72,9,6,-1,1
3973.72,10,12,8,10
3973.72,13,12,11,11
3973.72,9,5,0,1
3973.72,5,0,-4,-1
3973.72,3,-2,-7,1
3973.72,6,0,-4,5
3973.73,8,0,-2,7
3973.73,9,0,0,10
3973.73,10,1,0,10
3973.73,11,2,0,8
3973.73,10,3,1,7
3973.73,8,4,2,4
3973.73,6,3,0,2
3973.73,6,7,3,0
3973.73,5,12,9,1
3973.73,4,11,8,-1
3973.73,0,11,8,-3
3973.73,-1,13,16,0
3973.73,-3,9,12,-2
3973.73,-8,1,0,-12
3973.73,-13,-5,-9,-18
3973.73,-12,0,-1,-9
3973.73,-7,0,4,-1
3973.74,-4,0,2,0
3973.74,-2,0,4,5
3973.74,2,5,12,13
3973.74,6,8,18,16
3973.74,4,2,11,12
3973.74,1,0,8,8
3973.74,1,-8,-16,-12
3973.74,-1,-3,-12,-10
3973.74,1,1,-6,-4
3973.74,4,5,-1,0
3973.74,8,8,2,4
3973.74,13,14,8,11
3973.74,18,21,19,17
3973.74,15,15,20,17
3973.74,5,-3,-2,0
3973.74,-4,-14,-14,-5
3973.74,-2,-10,-9,2
3973.74,5,-4,-3,5
3973.75,5,-5,-6,3
3973.75,2,-7,-4,7
3973.75,9,0,1,11
3973.75,14,7,4,10
3973.75,10,7,7,9
3973.75,8,4,1,0
3973.75,0,0,-2,-1
3973.75,2,5,3,3
3973.75,9,15,11,4
3973.75,9,16,11,1
3973.75,2,10,8,-2
3973.75,-3,7,10,0
3973.75,-3,5,8,-2
3973.75,-6,2,4,-7
3973.75,-11,-1,0,-8
3973.75,-9,0,0,-8
3973.75,-8,-2,-5,-10
3973.76,-4,1,-2,-5
3973.76,3,9,4,-1
3973.76,4,8,3,-3
3973.76,0,2,-1,-4
3973.76,0,4,2,3
3973.76,8,9,5,7
3973.76,11,10,8,10
3973.76,12,12,14,16
3973.76,12,11,15,14
3973.76,7,5,10,10
3973.76,2,0,4,3
3973.76,-4,-9,-6,-4
3973.76,-7,-15,-17,-9
3973.76,-3,-8,-13,-5
3973.76,3,-1,-6,2
3973.76,10,0,-7,3
3973.76,11,1,-4,6
3973.77,14,8,9,18
3973.77,19,14,18,23
3973.77,13,2,4,11
3973.77,8,-1,-1,4
3973.77,3,-3,-5,-1
3973.77,1,-1,-5,-3
3973.77,2,3,0,0
3973.77,5,8,7,5
3973.77,6,11,11,5
3973.77,4,8,8,0
3973.77,-1,6,8,-1
3973.77,-2,7,9,0
3973.77,-2,7,8,-3
3973.77,-3,7,5,-6
3973.77,-6,3,2,-8
3973.77,-9,0,0,-9
3973.77,-8,0,3,-3
3973.77,-5,0,6,2
3973.78,-1,0,3,1
3973.78,0,0,0,0
3973.78,0,0,-4,-3
3973.78,1,2,0,1
3973.78,6,8,6,6
3973.78,10,13,12,10
3973.78,11,11,9,9
3973.78,9,8,6,5
3973.78,4,2,0,1
3973.78,2,0,-2,1
3973.78,1,-4,-7,0
3973.78,1,-8,-13,-2
3973.78,6,0,-5,2
3973.78,11,9,5,8
3973.78,11,10,9,11
3973.78,8,3,4,9
3973.78,7,-2,0,7
3973.79,5,-3,0,6
3973.79,4,-4,0,8
3973.79,3,-4,0,8
3973.79,6,1,8,14
3973.79,8,2,6,11
3973.79,7,3,1,2
3973.79,1,-1,-5,-5
3973.79,-1,-4,-11,-10
3973.79,0,5,-3,-5
3973.79,6,14,5,0
3973.79,9,17,9,0
3973.79,7,20,14,0
3973.79,2,12,8,-3
3973.79,-1,7,2,-9
3973.79,-3,6,2,-6
3973.79,-3,2,-2,-9
3973.79,-3,3,0,-5
3973.79,-1,2,4,2
3973.8,1,2,1,1
3973.8,4,6,6,5
3973.8,5,7,9,7
3973.8,2,3,9,8
3973.8,1,1,6,6
3973.8,0,-1,0,2
3973.8,0,0,2,3
3973.8,2,2,4,5
3973.8,3,0,1,1
3973.8,1,0,-1,0
3973.8,1,1,0,1
3973.8,2,2,1,4
3973.8,3,1,0,3
3973.8,3,1,1,3
3973.8,3,0,2,5
3973.8,1,-3,0,9
3973.8,5,-3,-2,8
3973.81,8,0,0,10
3973.81,9,-1,-1,8
3973.81,8,-2,-2,8
3973.81,11,1,0,9
3973.81,11,5,2,6
3973.81,9,6,2,3
3973.81,6,5,2,2
3973.81,7,13,12,6
3973.81,6,13,9,0
3973.81,-1,6,2,-8
3973.81,-6,4,1,-10
3973.81,-6,5,3,-7
3973.81,-6,5,4,-7
3973.81,-5,6,5,-5
3973.81,-3,7,6,-2
3973.81,0,8,6,-2
3973.81,-2,4,2,-2
3973.81,-2,0,0,-2
3973.82,0,1,0,0
3973.82,3,3,1,3
3973.82,5,5,3,4
3973.82,6,5,3,6
3973.82,7,3,0,4
3973.82,6,1,0,4
3973.82,6,3,2,6
3973.82,7,6,4,7
3973.82,7,4,2,4
3973.82,4,2,1,3
3973.82,4,1,1,4
3973.82,4,1,1,3
3973.82,4,2,2,3
3973.82,3,2,3,4
3973.82,3,0,1,5
3973.82,0,-7,-3,3
3973.82,1,-6,-2,7
3973.83,3,-4,0,8
3973.83,4,-6,-4,5
3973.83,7,0,0,7
3973.83,10,2,0,4
3973.83,9,6,0,3
3973.83,9,9,4,4
3973.83,9,11,6,4
3973.83,8,10,8,3
3973.83,6,11,8,0
3973.83,1,9,9,0
3973.83,-1,9,12,0
3973.83,-3,5,7,-3
3973.83,-7,2,4,-6
3973.83,-8,0,0,-10
3973.83,-11,-3,-3,-9
3973.83,-7,1,0,-5
3973.83,-4,0,0,-1
3973.84,1,3,2,2
3973.84,5,6,4,4
3973.84,6,6,4,4
3973.84,5,6,6,5
3973.84,6,6,5,5
3973.84,6,5,4,4
3973.84,3,0,-1,0
3973.84,0,-2,-2,0
3973.84,2,1,0,3
3973.84,5,3,1,4
3973.84,8,6,2,5
3973.84,9,7,4,5
3973.84,8,7,3,3
3973.84,6,5,2,3
3973.84,5,1,-1,1
3973.84,1,-4,-7,1
3973.84,3,-7,-8,4
3973.84,7,-3,-6,5
3973.85,10,2,0,9
3973.85,10,5,7,14
3973.85,13,8,12,16
3973.85,12,7,10,11
3973.85,6,3,6,4
3973.85,-1,-4,-1,-1
3973.85,-5,-8,-8,-7
3973.85,-4,-4,-9,-8
3973.85,2,8,5,0
3973.85,5,13,11,2
3973.85,4,12,10,-1
3973.85,0,13,12,0
3973.85,2,18,18,1
3973.85,-2,10,11,-2
3973.85,-8,-2,-4,-12
3973.85,-12,-4,-6,-13
3973.85,-11,-7,-8,-8
3973.86,-4,0,0,1
3973.86,4,5,3,4
3973.86,7,8,5,5
3973.86,8,10,10,11
3973.86,10,9,11,10
3973.86,6,5,7,6
3973.86,3,2,3,2
3973.86,0,0,0,0
3973.86,0,0,1,2
3973.86,1,0,-2,0
3973.86,1,-4,-12,-7
3973.86,3,1,-7,-1
3973.86,8,5,-1,4
3973.86,13,7,-1,4
3973.86,12,9,2,6
3973.86,11,5,2,10
3973.86,11,5,7,14
3973.86,10,5,14,19
3973.87,6,-2,5,11
3973.87,2,-8,-5,2
3973.87,1,-7,-8,-1
3973.87,0,-5,-10,-5
3973.87,1,1,-2,0
3973.87,4,6,4,3
3973.87,7,10,9,7
3973.87,8,12,11,6
3973.87,5,13,13,4
3973.87,1,10,13,1
3973.87,-3,5,6,-4
3973.87,-6,2,3,-7
3973.87,-7,3,3,-8
3973.87,-7,1,0,-8
3973.87,-6,2,0,-6
3973.87,-5,2,2,0
3973.87,0,3,3,2
3973.88,4,5,5,4
3973.88,3,4,4,3
3973.88,2,0,0,0
3973.88,2,1,0,2
3973.88,4,2,2,3
3973.88,5,4,1,2
3973.88,4,3,0,1
3973.88,7,5,0,3
3973.88,7,5,3,5
3973.88,9,7,5,6
3973.88,10,9,7,7
3973.88,8,6,4,4
3973.88,3,1,-1,0
3973.88,1,2,5,5
3973.88,1,-1,0,2
3973.88,-1,-8,-4,2
3973.88,0,-7,-3,5
3973.89,3,-5,-1,7
3973.89,5,-3,-1,8
3973.89,8,1,4,10
3973.89,8,3,5,9
3973.89,6,2,4,5
3973.89,3,0,0,1
3973.89,2,2,4,4
3973.89,5,7,7,5
3973.89,6,10,6,0
3973.89,3,9,4,-2
3973.89,2,12,7,-2
3973.89,0,11,6,-4
3973.89,-1,8,4,-6
3973.89,-3,5,4,-5
3973.89,-4,4,2,-5
3973.89,-4,3,2,-4
3973.89,-4,0,1,-2
3973.89,-1,0,1,1
3973.9,1,2,2,2
3973.9,3,3,3,4
3973.9,4,3,2,3
3973.9,5,3,1,2
3973.9,5,5,1,2
3973.9,4,4,2,3
3973.9,5,6,6,6
3973.9,7,6,6,6
3973.9,7,7,6,5
3973.9,2,0,0,0
3973.9,0,-2,-3,0
3973.9,0,-4,-8,-2
3973.9,3,-1,-7,-1
3973.9,5,2,-4,2
3973.9,8,1,-4,3
3973.9,9,0,-1,9
3973.9,12,6,8,18
3973.91,15,7,11,18
3973.91,12,0,5,13
3973.91,8,1,8,13
3973.91,5,-1,0,4
3973.91,1,0,1,0
3973.91,0,0,1,-1
3973.91,-2,0,2,0
3973.91,-3,0,-2,-5
3973.91,0,7,4,-3
3973.91,0,9,5,-5
3973.91,-1,8,3,-7
3973.91,-2,10,7,-4
3973.91,-1,8,4,-7
3973.91,-4,3,0,-5
3973.91,-1,4,0,-4
3973.91,3,11,7,0
3973.91,2,6,2,-1
3973.92,1,4,1,-1
3973.92,2,3,1,1
3973.92,2,1,-1,1
3973.92,6,5,3,5
3973.92,9,9,9,10
3973.92,10,9,10,11
3973.92,7,5,8,7
3973.92,3,0,1,3
3973.92,0,-2,-1,0
3973.92,-1,-3,-2,0
3973.92,0,-2,-3,0
3973.92,3,1,0,2
3973.92,4,4,4,5
3973.92,5,3,5,6
3973.92,2,0,3,4
3973.92,0,-5,-1,5
3973.92,3,-4,-3,6
3973.92,5,-3,-2,5
3973.93,6,-1,-2,7
3973.93,7,0,0,6
3973.93,10,3,2,8
3973.93,11,6,4,7
3973.93,10,7,3,3
3973.93,5,5,3,1
3973.93,3,4,3,1
3973.93,4,8,7,2
3973.93,4,11,9,0
3973.93,2,11,9,-1
3973.93,0,9,6,-6
3973.93,-4,5,3,-7
3973.93,-6,4,3,-7
3973.93,-6,3,2,-7
3973.93,-6,0,0,-6
3973.93,-5,-1,-3,-5
3973.93,-2,0,0,0
3973.94,3,6,7,7
3973.94,8,9,10,8
3973.94,7,5,5,5
3973.94,4,4,4,5
3973.94,4,4,7,7
3973.94,3,1,5,6
3973.94,2,1,5,5
3973.94,1,0,-2,0
3973.94,0,0,-2,0
3973.94,2,1,0,0
3973.94,2,0,-2,-1
3973.94,2,1,0,3
3973.94,5,4,4,7
3973.94,8,6,5,6
3973.94,6,4,6,8
3973.94,2,-5,-3,4
3973.94,3,-8,-10,0
3973.94,4,-3,-6,4
3973.95,8,0,-2,7
3973.95,11,5,2,10
3973.95,13,7,5,10
3973.95,13,9,7,8
3973.95,9,7,5,5
3973.95,6,5,2,1
3973.95,2,2,1,-1
3973.95,0,1,0,-3
3973.95,0,4,1,-3
3973.95,1,9,6,-1
3973.95,3,11,9,0
3973.95,1,11,8,-2
3973.95,0,7,3,-6
3973.95,-3,4,0,-9
3973.95,-4,5,1,-8
3973.95,-4,3,0,-8
3973.95,-6,0,0,-3
3973.96,-4,1,7,7
3973.96,2,1,7,8
3973.96,3,0,0,3
3973.96,5,2,1,4
3973.96,6,5,5,7
3973.96,7,6,6,7
3973.96,6,4,2,3
3973.96,5,4,1,1
3973.96,4,6,4,3
3973.96,4,5,3,2
3973.96,3,2,1,1
3973.96,2,2,4,3
3973.96,3,3,6,6
3973.96,1,0,5,6
3973.96,0,-1,7,10
3973.96,-1,-7,5,12
3973.96,-2,-13,-1,9
3973.97,1,-12,-8,2
3973.97,0,-13,-16,-2
3973.97,3,-6,-15,-4
3973.97,7,0,-10,-1
3973.97,13,8,-3,2
3973.97,18,18,5,7
3973.97,21,21,9,7
3973.97,18,20,10,7
3973.97,13,16,7,1
3973.97,6,14,10,1
3973.97,4,13,12,2
3973.97,0,10,11,0
3973.97,-3,4,5,-6
3973.97,-9,0,0,-9
3973.97,-11,-2,-2,-10
3973.97,-10,-3,-2,-8
3973.97,-9,-3,-1,-3
3973.97,-5,-1,1,0
3973.98,0,1,5,5
3973.98,3,2,5,6
3973.98,5,4,4,5
3973.98,5,4,4,5
3973.98,5,4,3,4
3973.98,5,3,2,3
3973.98,5,3,3,4
3973.98,5,3,3,5
3973.98,5,5,4,5
3973.98,5,4,1,2
3973.98,3,0,-3,-1
3973.98,2,1,-1,0
3973.98,3,1,-1,2
3973.98,3,-1,-2,2
3973.98,4,0,1,8
3973.98,9,3,7,14
3973.98,10,3,9,13
3973.99,6,-2,-1,5
3973.99,1,-5,-3,3
3973.99,3,-1,0,5
3973.99,4,0,1,5
3973.99,4,0,2,4
3973.99,5,3,4,6
3973.99,6,7,6,5
3973.99,4,5,2,0
3973.99,2,7,2,-3
3973.99,0,7,2,-5
3973.99,-1,6,1,-7
3973.99,0,7,1,-7
3973.99,0,11,3,-6
3973.99,0,9,2,-5
3973.99,0,7,3,-3
3973.99,1,9,6,0
3973.99,1,5,4,1
3973.99,1,4,6,3
3974,3,7,10,7
3974,1,2,7,5
3974,0,0,3,4
3974,0,0,2,3
3974,0,0,0,1
3974,0,-1,0,2
3974,1,0,0,2
3974,1,0,1,3
3974,3,2,2,4
3974,5,2,1,4
3974,6,3,0,2
3974,5,2,-2,0
3974,5,2,-2,0
3974,7,4,0,2
3974,6,1,-1,5
3974,7,0,-1,6
3974,9,0,0,9
3974.01,10,1,1,9
3974.01,10,2,3,10
3974.01,10,5,5,9
3974.01,8,6,6,6
3974.01,5,6,6,4
3974.01,2,3,4,1
3974.01,0,1,2,0
3974.01,-1,0,0,-1
3974.01,-2,0,-1,-5
3974.01,-2,2,0,-6
3974.01,-1,7,4,-4
3974.01,1,10,6,-1
3974.01,1,10,6,-3
3974.01,0,8,5,-3
3974.01,0,9,8,0
3974.01,0,8,10,2
3974.01,-1,3,7,2
3974.01,-2,0,0,0
3974.02,-2,-1,0,-1
3974.02,-1,0,0,0
3974.02,0,0,0,2
3974.02,2,0,-2,1
3974.02,5,4,2,5
3974.02,8,8,7,8
3974.02,7,7,7,8
3974.02,5,0,-1,2
3974.02,4,0,-4,0
3974.02,5,2,0,2
3974.02,7,5,2,3
3974.02,8,6,4,4
3974.02,8,6,3,4
3974.02,3,0,0,3
3974.02,2,-4,-3,5
3974.02,2,-7,-6,3
3974.02,3,-6,-6,4
3974.03,7,-1,-1,8
3974.03,11,6,5,12
3974.03,12,7,6,10
3974.03,9,6,4,7
3974.03,8,6,5,4
3974.03,3,5,5,3
3974.03,2,6,8,4
3974.03,2,8,12,5
3974.03,0,4,5,-2
3974.03,-3,2,0,-8
3974.03,-7,0,-3,-10
3974.03,-7,0,-2,-10
3974.03,-4,4,1,-8
3974.03,-2,6,2,-7
3974.03,-2,7,3,-4
3974.03,-1,5,5,0
3974.03,1,6,4,2
3974.03,3,5,4,3
3974.04,3,7,11,9
3974.04,5,6,10,10
3974.04,6,4,8,8
3974.04,4,1,2,3
3974.04,0,-2,-2,0
3974.04,-1,-3,-1,2
3974.04,2,0,1,4
3974.04,4,2,2,5
3974.04,4,2,3,7
3974.04,5,2,2,6
3974.04,5,2,1,4
3974.04,5,1,0,1
3974.04,4,1,-1,1
3974.04,3,-1,-6,0
3974.04,3,-4,-10,0
3974.04,7,0,-5,3
3974.04,11,6,2,9
3974.05,12,6,4,11
3974.05,13,7,6,10
3974.05,10,5,6,8
3974.05,7,5,7,6
3974.05,3,3,5,3
3974.05,0,1,3,1
3974.05,-1,0,0,-3
3974.05,0,3,0,-6
3974.05,-3,3,-3,-10
3974.05,-3,5,-1,-11
3974.05,-1,11,7,-2
3974.05,1,14,12,0
3974.05,1,12,12,1
3974.05,0,6,5,-2
3974.05,-2,3,2,-3
3974.05,-4,-1,-3,-5
3974.05,-1,0,-5,-3
3974.06,2,2,0,0
3974.06,4,5,4,5
3974.06,7,6,2,3
3974.06,7,8,6,7
3974.06,7,8,11,10
3974.06,6,7,16,14
3974.06,3,2,8,8
3974.06,-1,-3,2,3
3974.06,-3,-6,-1,1
3974.06,-2,-7,-5,-1
3974.06,-1,-6,-9,-4
3974.06,1,-1,-8,-3
3974.06,6,6,-1,1
3974.06,10,8,1,4
3974.06,9,4,1,7
3974.06,10,4,6,13
3974.06,13,4,5,13
3974.06,10,2,3,10
3974.07,8,-1,0,5
3974.07,5,0,-2,3
3974.07,4,0,0,3
3974.07,4,3,2,2
3974.07,4,4,3,2
3974.07,3,4,2,0
3974.07,2,5,4,0
3974.07,2,7,6,0
3974.07,1,8,7,-1
3974.07,0,9,7,-3
3974.07,-2,7,6,-3
3974.07,-3,5,4,-6
3974.07,-5,4,3,-6
3974.07,-6,2,3,-4
3974.07,-5,1,3,-2
3974.07,-3,0,2,1
3974.07,1,1,3,3
3974.08,1,1,3,3
3974.08,3,2,0,3
3974.08,5,3,2,4
3974.08,6,4,3,5
3974.08,7,4,3,5
3974.08,7,6,5,5
3974.08,8,9,10,9
3974.08,7,8,8,7
3974.08,3,3,5,5
3974.08,0,-2,0,2
3974.08,-1,-7,-5,-2
3974.08,-1,-5,-6,-2
3974.08,0,-1,-5,0
3974.08,2,0,-4,1
3974.08,5,-1,-3,4
3974.08,8,1,-2,7
3974.08,11,4,0,9
3974.08,12,5,3,11
3974.09,14,8,7,11
3974.09,11,5,4,8
3974.09,7,1,1,5
3974.09,4,1,3,4
3974.09,4,4,5,3
3974.09,2,5,4,0
3974.09,1,6,3,-2
3974.09,0,6,1,-6
3974.09,-1,6,0,-8
3974.09,-3,5,0,-8
3974.09,-2,8,5,-4
3974.09,0,10,6,-2
3974.09,0,9,7,-1
3974.09,0,8,10,1
3974.09,-1,5,10,4
3974.09,-2,0,4,2
3974.09,-2,0,4,2
3974.1,-1,-1,1,0
3974.1,-1,-4,-4,-3
3974.1,0,-3,-5,-2
3974.1,2,2,1,4
3974.1,6,6,6,8
3974.1,8,6,4,6
3974.1,8,4,3,5
3974.1,7,4,2,5
3974.1,6,3,2,4
3974.1,5,4,2,4
3974.1,6,4,2,4
3974.1,5,3,0,0
3974.1,3,0,-2,0
3974.1,1,-1,-4,0
3974.1,1,-8,-9,1
3974.1,5,-2,-3,7
3974.1,11,5,4,14
3974.11,14,6,7,15
3974.11,13,9,13,17
3974.11,10,6,13,15
3974.11,5,0,4,5
3974.11,-1,-1,1,0
3974.11,-2,-1,1,-2
3974.11,-5,-1,2,-2
3974.11,-5,0,0,-6
3974.11,-6,0,-2,-9
3974.11,-4,3,-3,-10
3974.11,-2,6,-1,-9
3974.11,1,11,2,-5
3974.11,4,14,6,-2
3974.11,6,15,8,0
3974.11,7,14,7,0
3974.11,3,8,4,0
3974.11,2,5,3,0
3974.11,2,5,4,3
3974.12,2,4,5,5
3974.12,3,4,4,4
3974.12,3,3,4,3
3974.12,2,0,1,2
3974.12,0,-1,-1,0
3974.12,1,-1,0,2
3974.12,3,0,0,3
3974.12,5,2,0,2
3974.12,4,2,0,3
3974.12,4,1,0,3
3974.12,5,5,4,5
3974.12,7,5,4,5
3974.12,5,2,1,4
3974.12,2,-3,-3,3
3974.12,1,-6,-5,3
3974.12,3,-3,-1,8
3974.12,7,0,0,9
3974.13,8,0,0,8
3974.13,9,2,1,7
3974.13,8,4,2,6
3974.13,8,5,3,4
3974.13,6,6,6,5
3974.13,5,9,13,10
3974.13,5,7,11,5
3974.13,0,4,6,-1
3974.13,-4,1,0,-7
3974.13,-6,2,0,-9
3974.13,-6,4,0,-10
3974.13,-3,3,-6,-15
3974.13,-2,6,-3,-10
3974.13,1,11,4,-3
3974.13,4,14,10,3
3974.13,4,10,10,6
3974.13,4,7,11,9
3974.14,4,4,8,6
3974.14,1,0,0,0
3974.14,-1,-2,-3,-3
3974.14,-3,-5,-5,-2
3974.14,0,0,-1,2
3974.14,4,3,2,4
3974.14,8,5,2,4
3974.14,8,5,3,6
3974.14,9,6,5,7
3974.14,8,6,6,8
3974.14,9,6,6,6
3974.14,5,4,4,4
3974.14,3,2,2,3
3974.14,1,0,1,1
3974.14,-2,-7,-5,1
3974.14,0,-5,-5,2
3974.14,2,-4,-3,4
3974.14,5,-3,-3,6
3974.15,7,0,-1,7
3974.15,8,3,2,8
3974.15,9,6,6,8
3974.15,9,8,10,10
3974.15,6,9,14,9
3974.15,3,3,5,2
3974.15,0,0,0,-4
3974.15,-1,3,1,-6
3974.15,-1,7,4,-6
3974.15,-2,7,1,-10
3974.15,-4,4,-2,-11
3974.15,-2,6,0,-7
3974.15,1,11,5,-2
3974.15,2,11,8,1
3974.15,1,8,9,4
3974.15,1,6,11,7
3974.15,1,6,14,12
3974.16,2,2,9,6
3974.16,-3,-6,-5,-4
3974.16,-5,-7,-7,-5
3974.16,-1,-2,-4,-1
3974.16,3,4,3,4
3974.16,6,4,4,7
3974.16,5,0,0,5
3974.16,6,0,0,5
3974.16,7,4,2,6
3974.16,8,5,3,5
3974.16,6,5,3,3
3974.16,4,2,0,1
3974.16,5,4,1,2
3974.16,5,5,3,5
3974.16,2,0,1,7
3974.16,3,-4,0,7
3974.16,4,-4,-3,4
3974.16,5,-4,-5,5
3974.17,7,0,-4,4
3974.17,9,2,-4,1
3974.17,7,3,-2,1
3974.17,9,6,0,1
3974.17,9,8,1,1
3974.17,10,9,3,2
3974.17,9,12,7,2
3974.17,7,13,9,2
3974.17,5,15,14,3
3974.17,2,13,13,1
3974.17,-1,8,8,-5
3974.17,-7,2,3,-8
3974.17,-11,0,0,-9
3974.17,-11,-2,1,-6
3974.17,-9,-3,0,-2
3974.17,-4,-1,-1,-1
3974.17,0,0,-1,-1
3974.18,0,-1,-1,1
3974.18,2,0,0,4
3974.18,8,6,5,8
3974.18,10,9,7,8
3974.18,9,7,5,5
3974.18,5,4,3,4
3974.18,6,5,4,5
3974.18,4,4,4,6
3974.18,3,0,1,5
3974.18,4,0,0,2
3974.18,3,0,-1,1
3974.18,4,2,0,3
3974.18,5,4,2,3
3974.18,4,0,-1,3
3974.18,3,-3,-4,3
3974.18,5,-2,-4,4
3974.18,7,2,3,9
3974.18,8,4,5,11
3974.19,9,4,6,10
3974.19,7,2,5,8
3974.19,6,5,10,10
3974.19,5,5,9,6
3974.19,0,0,6,2
3974.19,-4,-2,1,-2
3974.19,-5,-1,-1,-6
3974.19,-6,0,-2,-8
3974.19,-5,2,-1,-8
3974.19,-2,5,0,-6
3974.19,1,11,7,-1
3974.19,2,10,6,0
3974.19,3,9,4,0
3974.19,2,7,2,-2
3974.19,0,4,2,0
3974.19,1,5,5,4
3974.19,6,8,8,7
3974.2,5,7,8,6
3974.2,3,4,6,5
3974.2,1,0,2,3
3974.2,1,0,3,3
3974.2,1,-1,-3,0
3974.2,0,-2,-6,-1
3974.2,2,0,-3,0
3974.2,4,2,0,2
3974.2,6,5,3,6
3974.2,9,7,6,8
3974.2,9,7,5,6
3974.2,6,3,2,3
3974.2,3,0,0,1
3974.2,0,-3,-3,3
3974.2,2,-3,-2,5
3974.2,5,-1,-1,7
3974.2,7,-1,-1,6
3974.21,7,0,1,10
3974.21,9,3,6,12
3974.21,9,4,6,10
3974.21,7,4,3,4
3974.21,3,0,-2,-2
3974.21,0,0,-3,-4
3974.21,1,2,-4,-6
3974.21,3,8,0,-4
3974.21,5,16,11,1
3974.21,7,19,16,3
3974.21,3,13,12,0
3974.21,-2,7,9,-2
3974.21,-7,2,6,-3
3974.21,-8,-1,2,-4
3974.21,-7,-2,0,-5
3974.21,-7,-6,-8,-8
3974.21,-4,-2,-6,-5
3974.21,1,2,-2,-1
3974.22,7,6,0,3
3974.22,10,9,3,4
3974.22,13,11,5,6
3974.22,11,11,8,8
3974.22,10,10,9,10
3974.22,7,5,6,6
3974.22,4,3,5,5
3974.22,2,0,0,2
3974.22,0,-1,0,0
3974.22,0,0,2,2
3974.22,0,-2,-2,0
3974.22,0,-1,0,1
3974.22,1,1,1,3
3974.22,2,-3,-3,2
3974.22,2,-4,-4,3
3974.22,4,-3,-5,3
3974.22,6,0,0,9
3974.23,11,5,7,15
3974.23,13,3,4,11
3974.23,9,2,3,9
3974.23,9,5,5,6
3974.23,6,6,5,3
3974.23,3,4,2,0
3974.23,1,6,3,-1
3974.23,0,7,5,-3
3974.23,0,8,5,-4
3974.23,-2,8,6,-4
3974.23,-3,6,3,-6
3974.23,-4,5,1,-8
3974.23,-4,2,-1,-9
3974.23,-4,3,0,-7
3974.23,-2,3,1,-2
3974.23,1,5,2,2
3974.23,5,7,6,5
3974.23,6,8,7,7
3974.24,6,7,11,10
3974.24,5,7,15,14
3974.24,4,1,7,6
3974.24,0,-2,0,1
3974.24,-1,-3,-1,0
3974.24,-1,-2,-1,0
3974.24,0,-1,-1,0
3974.24,2,0,-1,1
3974.24,4,1,-1,1
3974.24,6,3,0,2
3974.24,7,5,0,2
3974.24,5,3,0,2
3974.24,5,0,-2,4
3974.24,6,0,-1,7
3974.24,9,0,0,9
3974.24,9,1,1,8
3974.24,9,0,1,9
3974.25,9,2,2,8
3974.25,10,6,6,9
3974.25,9,6,6,7
3974.25,4,2,2,0
3974.25,1,1,0,-1
3974.25,0,3,1,0
3974.25,3,8,5,-1
3974.25,1,7,5,-2
3974.25,0,7,5,-3
3974.25,-1,7,5,-3
3974.25,-2,6,3,-5
3974.25,-3,5,3,-5
3974.25,-3,4,2,-4
3974.25,-3,4,3,-3
3974.25,-3,2,2,-2
3974.25,-2,2,2,0
3974.25,0,4,5,2
3974.25,2,4,5,4
3974.26,3,3,3,3
3974.26,3,2,3,5
3974.26,6,5,4,6
3974.26,7,5,3,5
3974.26,5,2,0,2
3974.26,4,1,-1,1
3974.26,4,1,0,1
3974.26,5,4,1,3
3974.26,7,4,2,4
3974.26,6,4,2,4
3974.26,5,4,2,3
3974.26,4,2,0,3
3974.26,2,-1,0,4
3974.26,3,-3,-1,5
3974.26,4,-2,0,7
3974.26,5,0,1,8
3974.26,6,-1,0,7
3974.27,7,0,0,5
3974.27,6,1,0,4
3974.27,5,2,0,3
3974.27,5,3,1,2
3974.27,5,5,5,4
3974.27,5,6,5,2
3974.27,5,9,7,1
3974.27,2,8,6,-1
3974.27,0,9,8,-2
3974.27,-2,9,9,-1
3974.27,-2,8,8,-4
3974.27,-6,2,2,-7
3974.27,-7,0,0,-7
3974.27,-5,0,0,-5
3974.27,-4,0,0,-1
3974.27,0,1,0,0
3974.27,0,1,2,3
3974.28,4,4,4,7
3974.28,7,7,6,7
3974.28,8,7,5,6
3974.28,7,4,1,3
3974.28,4,2,-3,0
3974.28,6,3,-2,0
3974.28,6,5,0,2
3974.28,8,7,3,4
3974.28,8,5,3,5
3974.28,7,3,2,4
3974.28,6,5,5,7
3974.28,5,3,5,5
3974.28,3,0,0,2
3974.28,0,-6,-5,0
3974.28,-1,-7,-6,2
3974.28,3,-3,-1,5
3974.28,5,0,1,9
3974.28,8,1,2,9
3974.29,9,4,5,9
3974.29,9,5,6,7
3974.29,6,3,2,2
3974.29,2,0,-2,-1
3974.29,1,1,-2,-2
3974.29,2,5,1,-1
3974.29,4,10,5,-1
3974.29,3,11,6,-1
3974.29,2,11,7,-2
3974.29,0,10,6,-3
3974.29,-1,7,4,-4
3974.29,-2,5,2,-3
3974.29,-1,6,5,-1
3974.29,-1,5,7,1
3974.29,-2,3,7,3
3974.29,-1,2,7,3
3974.29,-2,0,2,1
3974.3,-2,-2,-1,0
3974.3,-1,-2,0,1
3974.3,1,0,0,3
3974.3,4,5,6,6
3974.3,6,4,4,5
3974.3,6,5,3,3
3974.3,4,4,3,4
3974.3,5,4,3,3
3974.3,4,3,2,3
3974.3,2,0,-1,2
3974.3,3,0,0,3
3974.3,3,0,0,4
3974.3,4,-1,-1,5
3974.3,4,-2,0,8
3974.3,7,-1,0,8
3974.3,9,1,-1,7
3974.3,7,1,3,10
3974.3,7,0,0,7
3974.31,6,0,-3,2
3974.31,5,1,-4,-1
3974.31,6,3,-7,-5
3974.31,5,7,-3,-2
3974.31,7,9,2,1
3974.31,10,14,6,1
3974.31,11,18,12,4
3974.31,9,20,20,8
3974.31,4,13,15,2
3974.31,-3,5,6,-5
3974.31,-8,0,0,-11
3974.31,-10,0,0,-9
3974.31,-8,0,0,-6
3974.31,-8,-1,0,-3
3974.31,-5,-2,0,-1
3974.31,-1,0,2,1
3974.31,1,3,5,4
3974.32,3,4,5,5
3974.32,4,3,3,5
3974.32,4,3,3,6
3974.32,4,1,1,4
3974.32,5,2,2,5
3974.32,7,3,2,4
3974.32,6,3,1,3
3974.32,5,2,0,2
3974.32,6,4,0,2
3974.32,6,6,2,3
3974.32,7,5,5,5
3974.32,5,4,2,3
3974.32,3,0,-1,3
3974.32,1,-3,-1,6
3974.32,5,-1,0,7
3974.32,4,0,3,9
3974.32,3,-2,3,11
3974.32,7,0,2,10
3974.33,6,0,0,4
3974.33,4,0,-2,1
3974.33,4,2,-1,0
3974.33,4,2,0,0
3974.33,3,5,3,2
3974.33,6,10,6,1
3974.33,4,9,4,-3
3974.33,0,8,4,-5
3974.33,-2,9,8,-4
3974.33,-1,11,11,-1
3974.33,-2,8,9,-1
3974.33,-3,4,5,-2
3974.33,-5,0,0,-5
3974.33,-6,-3,-3,-3
3974.33,-2,0,0,1
3974.33,4,3,2,3
3974.33,5,5,3,4
3974.34,6,5,2,3
3974.34,6,6,4,4
3974.34,7,7,5,4
3974.34,6,5,3,3
3974.34,6,6,4,4
3974.34,3,3,3,3
3974.34,3,2,3,4
3974.34,3,1,2,5
3974.34,3,1,2,4
3974.34,1,-1,0,0
3974.34,1,0,2,4
3974.34,2,0,3,4
3974.34,1,-4,-3,3
3974.34,1,-8,-8,1
3974.34,4,-4,-7,2
3974.34,7,0,-3,5
3974.34,10,2,0,7
3974.35,11,6,2,7
3974.35,11,6,3,7
3974.35,11,8,3,5
3974.35,9,8,5,4
3974.35,7,9,7,4
3974.35,5,7,7,3
3974.35,3,7,5,-1
3974.35,0,6,4,-3
3974.35,-2,6,4,-5
3974.35,-4,4,3,-7
3974.35,-6,4,3,-6
3974.35,-4,4,4,-4
3974.35,-3,6,5,-2
3974.35,-2,4,4,0
3974.35,-1,1,3,0
3974.35,-1,1,2,0
3974.35,0,3,4,1
3974.35,1,4,5,3
3974.36,2,4,4,3
3974.36,2,3,2,2
3974.36,3,0,0,4
3974.36,3,0,-1,3
3974.36,5,0,0,5
3974.36,7,3,0,5
3974.36,8,3,1,5
3974.36,9,5,3,6
3974.36,8,4,2,5
3974.36,7,4,2,4
3974.36,6,4,3,3
3974.36,4,2,2,5
3974.36,2,-3,-1,4
3974.36,2,-4,-2,5
3974.36,4,-3,-1,6
3974.36,5,-2,-3,4
3974.36,5,0,0,4
3974.37,6,2,0,4
3974.37,7,3,1,3
3974.37,7,6,4,2
3974.37,5,6,4,3
3974.37,3,4,2,1
3974.37,3,4,4,0
3974.37,1,7,6,0
3974.37,2,9,8,0
3974.37,0,8,6,-3
3974.37,-1,7,5,-4
3974.37,-2,6,4,-5
3974.37,-4,3,2,-5
3974.37,-4,3,1,-4
3974.37,-2,3,2,-2
3974.37,0,3,3,1
3974.37,0,3,3,2
3974.37,2,3,3,3
3974.38,4,4,4,5
3974.38,5,6,6,5
3974.38,4,4,4,5
3974.38,5,2,1,3
3974.38,3,1,1,3
3974.38,3,1,1,3
3974.38,3,1,2,4
3974.38,3,1,3,4
3974.38,4,4,6,7
3974.38,5,3,5,5
3974.38,2,0,0,0
3974.38,0,-3,-5,-2
3974.38,0,-4,-7,-2
3974.38,0,-5,-8,0
3974.38,6,0,-2,6
3974.38,11,5,2,10
3974.38,12,5,4,12
3974.38,13,7,7,12
3974.39,12,6,5,10
3974.39,9,4,2,4
3974.39,5,1,-1,0
3974.39,2,2,-1,0
3974.39,3,5,2,1
3974.39,4,7,5,0
3974.39,2,8,6,-2
3974.39,0,10,9,0
3974.39,0,10,10,-1
3974.39,-2,7,6,-4
3974.39,-5,3,2,-7
3974.39,-6,1,0,-9
3974.39,-5,1,-1,-9
3974.39,-6,0,-2,-4
3974.39,0,3,1,0
3974.39,2,6,5,4
3974.39,5,7,8,7
3974.4,6,8,12,10
3974.4,5,5,12,11
3974.4,4,3,8,7
3974.4,2,0,6,7
3974.4,0,-4,0,0
3974.4,-2,-7,-6,-2
3974.4,-2,-5,-7,-3
3974.4,1,-1,-5,0
3974.4,5,3,-3,1
3974.4,7,5,0,3
3974.4,10,10,5,8
3974.4,12,9,5,6
3974.4,9,3,-1,4
3974.4,7,-1,-5,2
3974.4,7,0,-3,5
3974.4,9,1,-1,7
3974.4,9,1,2,10
3974.4,11,5,5,11
3974.41,10,5,7,10
3974.41,7,4,7,7
3974.41,2,3,8,6
3974.41,0,0,4,1
3974.41,-3,-2,0,-3
3974.41,-4,0,0,-7
3974.41,-4,2,0,-8
3974.41,-3,6,3,-5
3974.41,-1,9,5,-3
3974.41,0,10,8,-1
3974.41,1,11,8,0
3974.41,0,8,6,-1
3974.41,-1,5,4,-2
3974.41,-3,0,0,-1
3974.41,-1,0,1,1
3974.41,1,2,1,2
3974.41,2,3,1,2
3974.42,2,2,2,3
3974.42,5,4,3,5
3974.42,6,5,4,5
3974.42,6,5,3,5
3974.42,5,3,1,2
3974.42,3,1,0,3
3974.42,4,2,1,3
3974.42,5,3,1,3
3974.42,4,4,5,5
3974.42,5,4,3,3
3974.42,3,2,2,2
3974.42,2,0,0,1
3974.42,0,-4,-2,3
3974.42,1,-6,-4,4
3974.42,4,-4,-3,7
3974.42,6,-3,-3,7
3974.42,8,-1,-2,8
3974.43,11,4,1,8
3974.43,12,7,4,7
3974.43,10,7,3,5
3974.43,9,7,3,2
3974.43,6,8,2,0
3974.43,4,8,4,-1
3974.43,3,11,6,-1
3974.43,1,11,8,-1
3974.43,0,12,11,-1
3974.43,-3,8,9,-3
3974.43,-6,2,1,-7
3974.43,-8,0,1,-8
3974.43,-7,0,0,-6
3974.43,-7,-2,-2,-4
3974.43,-3,0,0,0
3974.43,1,4,5,4
3974.43,4,5,6,5
3974.43,5,7,10,9
3974.44,4,5,8,8
3974.44,4,2,3,5
3974.44,2,0,-2,0
3974.44,1,-3,-4,0
3974.44,1,-1,-1,2
3974.44,5,5,4,6
3974.44,7,7,6,7
3974.44,6,6,5,6
3974.44,5,3,2,3
3974.44,4,2,0,1
3974.44,3,1,-1,0
3974.44,2,0,-2,1
3974.44,2,-4,-4,5
3974.44,6,-2,0,8
3974.44,8,0,0,9
3974.44,7,-2,-1,8
3974.44,8,0,0,6
3974.45,8,2,-1,4
3974.45,8,3,-1,2
3974.45,8,7,3,3
3974.45,9,10,5,4
3974.45,7,8,2,0
3974.45,5,9,3,-3
3974.45,3,11,7,-1
3974.45,2,11,8,-2
3974.45,0,7,3,-6
3974.45,-2,6,1,-7
3974.45,-2,6,0,-8
3974.45,-3,5,1,-6
3974.45,-3,6,5,-1
3974.45,-2,2,3,0
3974.45,0,2,6,6
3974.45,3,5,7,5
3974.45,2,2,5,3
3974.45,0,0,3,2
3974.46,-1,0,6,7
3974.46,2,1,5,6
3974.46,2,0,1,2
3974.46,1,0,0,0
3974.46,1,0,1,2
3974.46,2,0,0,4
3974.46,4,1,1,4
3974.46,6,3,1,4
3974.46,7,6,3,4
3974.46,6,4,0,1
3974.46,4,2,1,2
3974.46,3,1,0,4
3974.46,3,-3,-2,4
3974.46,4,-2,-1,7
3974.46,7,0,1,8
3974.46,7,-1,0,10
3974.46,10,3,2,8
3974.47,9,3,2,6
3974.47,7,4,2,3
3974.47,4,4,2,2
3974.47,3,3,2,0
3974.47,2,3,1,0
3974.47,4,9,6,0
3974.47,4,10,7,-1
3974.47,1,10,7,-2
3974.47,-1,8,6,-4
3974.47,-3,6,4,-5
3974.47,-3,5,2,-6
3974.47,-4,3,1,-6
3974.47,-3,3,2,-3
3974.47,-3,1,1,0
3974.47,0,2,2,2
3974.47,3,4,3,3
3974.47,3,3,3,2
3974.48,3,2,1,2
3974.48,4,3,1,4
3974.48,5,4,2,4
3974.48,5,3,2,5
3974.48,5,3,2,4
3974.48,5,2,0,3
3974.48,5,2,0,2
3974.48,6,4,1,3
3974.48,7,5,2,4
3974.48,6,5,2,3
3974.48,5,4,3,3
3974.48,3,1,1,3
3974.48,2,-1,1,5
3974.48,1,-4,-1,6
3974.48,2,-7,-5,4
3974.48,4,-3,-2,7
3974.48,7,0,0,8
3974.48,9,5,6,10
3974.49,8,4,6,9
3974.49,8,5,6,6
3974.49,5,5,4,2
3974.49,0,0,-1,-1
3974.49,0,1,0,-2
3974.49,1,4,0,-4
3974.49,1,6,1,-3
3974.49,3,11,4,-3
3974.49,2,11,6,-2
3974.49,1,10,6,-3
3974.49,0,8,5,-3
3974.49,0,8,6,-2
3974.49,-1,6,5,-3
3974.49,-4,2,1,-3
3974.49,-4,0,0,-2
3974.49,-2,0,0,0
3974.49,0,1,1,2
3974.49,3,2,2,5
3974.5,6,4,3,5
3974.5,7,7,5,6
3974.5,6,5,6,6
3974.5,5,4,7,8
3974.5,5,4,7,9
3974.5,6,2,3,5
3974.5,1,0,2,3
3974.5,0,-3,-3,0
3974.5,0,-3,-5,-1
3974.5,2,0,-3,0
3974.5,2,0,-2,1
3974.5,4,-1,-4,2
3974.5,5,-1,-2,7
3974.5,9,2,1,9
3974.5,10,2,1,9
3974.5,10,3,2,9
3974.5,10,4,3,8
3974.51,9,5,2,6
3974.51,8,6,3,3
3974.51,5,4,1,0
3974.51,3,4,2,0
3974.51,2,6,3,-1
3974.51,1,7,3,-2
3974.51,0,7,5,-2
3974.51,1,11,7,-2
3974.51,0,8,5,-5
3974.51,-3,6,4,-5
3974.51,-3,5,3,-4
3974.51,-3,3,3,-3
3974.51,-3,0,1,-1
3974.51,-2,-1,0,0
3974.51,0,-1,-2,0
3974.51,2,1,0,1
3974.51,4,4,4,5
3974.52,6,5,6,8
3974.52,7,6,7,7
3974.52,6,5,5,6
3974.52,6,4,5,6
3974.52,4,2,3,3
3974.52,3,1,0,2
3974.52,3,2,2,3
3974.52,4,0,-3,-1
3974.52,2,0,-4,-2
3974.52,2,1,0,1
3974.52,5,5,5,6
3974.52,7,4,7,9
3974.52,5,0,0,6
3974.52,4,-3,-2,4
3974.52,4,-3,-4,3
3974.52,3,-3,-3,5
3974.52,6,0,1,8
3974.52,8,3,3,8
3974.53,10,6,5,6
3974.53,7,6,3,3
3974.53,3,3,1,0
3974.53,1,3,2,0
3974.53,2,9,8,4
3974.53,4,10,9,1
3974.53,0,8,6,-4
3974.53,-2,5,2,-7
3974.53,-4,5,2,-6
3974.53,-4,4,1,-6
3974.53,-4,5,3,-5
3974.53,-2,6,6,-1
3974.53,-1,5,4,0
3974.53,0,2,4,3
3974.53,1,2,5,4
3974.53,2,3,6,5
3974.53,1,2,6,6
3974.54,1,0,3,4
3974.54,0,-1,-1,1
3974.54,1,-2,-4,-1
3974.54,2,0,-4,0
3974.54,7,4,-2,0
3974.54,7,7,1,3
3974.54,10,9,4,6
3974.54,11,9,5,6
3974.54,9,6,1,3
3974.54,6,3,0,1
3974.54,4,1,-1,2
3974.54,3,-1,-2,2
3974.54,3,-1,0,6
3974.54,5,0,2,10
3974.54,7,0,3,10
3974.54,6,-1,0,8
3974.54,6,0,2,9
3974.54,7,3,3,6
3974.55,5,2,1,2
3974.55,3,2,0,0
3974.55,2,3,1,0
3974.55,2,5,2,0
3974.55,3,9,7,0
3974.55,3,11,10,0
3974.55,0,10,8,-2
3974.55,-2,5,4,-6
3974.55,-5,3,1,-7
3974.55,-6,1,0,-7
3974.55,-4,2,0,-5
3974.55,-2,4,2,-2
3974.55,0,4,2,0
3974.55,3,5,3,2
3974.55,4,5,1,1
3974.55,3,4,1,1
3974.55,4,6,4,4
3974.56,6,6,5,6
3974.56,6,6,5,6
3974.56,5,2,3,5
3974.56,4,2,4,5
3974.56,4,4,8,9
3974.56,4,0,4,6
3974.56,1,0,4,6
3974.56,0,-2,0,2
3974.56,0,-1,0,1
3974.56,0,0,2,2
3974.56,1,0,0,1
3974.56,-1,-5,-1,3
3974.56,1,-4,-3,4
3974.56,4,-3,-4,3
3974.56,5,-3,-5,2
3974.56,7,0,-6,3
3974.56,11,5,0,5
3974.57,13,9,3,6
3974.57,13,12,4,6
3974.57,13,11,4,2
3974.57,9,8,2,1
3974.57,7,11,5,1
3974.57,6,12,9,2
3974.57,4,12,13,4
3974.57,1,9,9,-1
3974.57,-4,2,2,-7
3974.57,-8,1,1,-9
3974.57,-9,0,0,-9
3974.57,-10,-2,-2,-8
3974.57,-8,0,2,-2
3974.57,-2,3,6,3
3974.57,1,4,7,5
3974.57,1,4,7,6
3974.57,2,3,7,7
3974.57,3,2,4,5
3974.58,3,1,2,4
3974.58,3,1,0,3
3974.58,3,-2,-4,0
3974.58,2,-1,-4,0
3974.58,6,4,1,4
3974.58,9,9,5,7
3974.58,9,7,5,5
3974.58,8,6,3,4
3974.58,5,4,2,3
3974.58,5,3,2,4
3974.58,4,2,0,3
3974.58,1,-4,-5,2
3974.58,2,-5,-5,3
3974.58,4,-2,-3,5
3974.58,7,-1,-2,6
3974.58,9,3,0,6
3974.58,11,7,4,7
3974.59,10,8,5,5
3974.59,6,6,4,2
3974.59,3,4,2,1
3974.59,1,2,1,0
3974.59,1,3,1,-2
3974.59,0,4,4,0
3974.59,1,9,9,1
3974.59,1,11,11,0
3974.59,0,8,8,-2
3974.59,-3,5,4,-5
3974.59,-4,4,2,-6
3974.59,-6,1,0,-7
3974.59,-7,-2,-2,-4
3974.59,-3,-2,-2,0
3974.59,1,2,1,2
3974.59,6,7,6,6
3974.59,7,7,6,6
3974.59,6,6,6,5
3974.6,7,5,5,5
3974.6,4,3,2,4
3974.6,4,3,3,3
3974.6,3,1,0,2
3974.6,2,0,0,2
3974.6,3,1,0,3
3974.6,4,3,2,4
3974.6,4,3,2,3
3974.6,5,3,2,3
3974.6,4,3,2,3
3974.6,2,0,0,3
3974.6,2,-3,-2,3
3974.6,3,-3,-3,5
3974.6,5,-1,-1,7
3974.6,5,-1,-1,6
3974.6,8,0,1,8
3974.6,9,2,2,8
3974.61,10,6,3,6
3974.61,9,8,4,3
3974.61,4,5,3,1
3974.61,3,4,1,0
3974.61,2,6,3,0
3974.61,2,9,6,-1
3974.61,0,11,11,0
3974.61,0,10,10,-1
3974.61,-4,5,6,-5
3974.61,-6,3,1,-7
3974.61,-7,0,-1,-8
3974.61,-6,0,-1,-6
3974.61,-4,0,0,0
3974.61,0,1,1,2
3974.61,4,5,4,4
3974.61,7,6,4,5
3974.61,7,7,5,6
3974.61,7,6,6,6
3974.62,6,4,5,5
3974.62,5,3,4,4
3974.62,4,1,1,2
3974.62,2,1,1,2
3974.62,0,-1,-1,2
3974.62,2,0,-1,2
3974.62,5,3,0,2
3974.62,5,4,3,5
3974.62,6,5,3,3
3974.62,3,1,0,2
3974.62,1,-2,-3,1
3974.62,1,-4,-3,4
3974.62,5,-3,-5,4
3974.62,6,-1,-2,5
3974.62,8,0,-1,7
3974.62,12,7,7,12
3974.62,13,11,10,11
3974.63,11,8,7,6
3974.63,5,5,4,2
3974.63,2,1,-2,-4
3974.63,0,0,-7,-8
3974.63,0,6,0,-5
3974.63,2,11,7,0
3974.63,3,13,10,0
3974.63,1,13,15,5
3974.63,1,12,17,5
3974.63,-3,5,10,-1
3974.63,-8,0,5,-3
3974.63,-11,-4,0,-6
3974.63,-11,-7,-6,-8
3974.63,-7,-4,-4,-5
3974.63,-2,0,-1,-1
3974.63,0,0,-2,0
3974.63,3,1,0,3
3974.64,9,8,5,8
3974.64,12,10,9,10
3974.64,10,7,5,7
3974.64,9,6,3,6
3974.64,8,6,4,6
3974.64,9,7,4,5
3974.64,7,7,3,2
3974.64,4,2,1,0
3974.64,2,2,0,1
3974.64,1,1,1,2
3974.64,1,0,0,1
3974.64,0,-5,-3,1
3974.64,0,-6,-4,3
3974.64,2,-5,-2,6
3974.64,5,-2,0,8
3974.64,8,0,2,10
3974.64,10,3,2,8
3974.65,9,4,3,6
3974.65,8,5,3,3
3974.65,6,6,1,1
3974.65,5,6,2,0
3974.65,4,7,3,0
