Program Time [s],data 0,data 1,data 2,data 3
3998.71,0,2,0,-2
3998.71,-1,1,1,0
3998.71,2,7,5,1
3998.71,3,9,7,1
3998.71,2,8,5,-2
3998.71,0,6,4,-3
3998.71,-1,4,3,-2
3998.71,0,6,4,0
3998.71,-1,1,-1,-4
3998.71,-1,0,-3,-3
3998.71,0,1,0,0
3998.71,3,5,3,4
3998.71,5,4,3,4
3998.71,6,5,4,6
3998.72,7,5,4,6
3998.72,5,3,2,4
3998.72,5,4,2,3
3998.72,5,5,5,6
3998.72,6,5,6,7
3998.72,5,4,6,7
3998.72,2,0,4,5
3998.72,0,-2,1,3
3998.72,1,0,1,3
3998.72,1,0,0,0
3998.72,0,-3,-6,-3
3998.72,-1,-7,-10,-4
3998.72,2,-2,-6,0
3998.72,7,2,0,6
3998.72,9,4,3,10
3998.72,13,10,8,11
3998.72,11,7,5,8
3998.73,8,5,3,3
3998.73,4,3,0,0
3998.73,2,4,1,0
3998.73,2,4,2,2
3998.73,4,7,4,0
3998.73,3,7,3,-2
3998.73,0,6,4,-3
3998.73,-1,6,5,-2
3998.73,0,8,7,-1
3998.73,0,6,5,-2
3998.73,-2,2,0,-5
3998.73,-4,0,0,-3
3998.73,-2,0,1,0
3998.73,0,3,5,4
3998.73,3,5,7,6
3998.73,3,4,5,3
3998.73,1,1,3,2
3998.74,1,1,3,3
3998.74,3,2,1,3
3998.74,4,2,1,2
3998.74,3,2,0,2
3998.74,3,0,-1,3
3998.74,5,3,2,5
3998.74,6,2,0,4
3998.74,6,3,1,4
3998.74,6,3,1,4
3998.74,5,5,2,3
3998.74,4,4,5,5
3998.74,3,1,4,6
3998.74,2,-2,0,4
3998.74,1,-5,-4,3
3998.74,4,-2,-2,4
3998.74,5,0,-1,3
3998.74,6,2,1,6
3998.74,8,5,3,6
3998.75,8,6,3,3
3998.75,6,5,1,1
3998.75,4,5,2,0
3998.75,3,5,3,0
3998.75,3,7,4,0
3998.75,3,8,5,0
3998.75,2,9,4,-3
3998.75,0,5,3,-4
3998.75,-2,5,2,-4
3998.75,-2,5,4,-1
3998.75,0,5,4,0
3998.75,0,5,5,0
3998.75,0,2,2,0
3998.75,0,1,1,0
3998.75,1,1,2,2
3998.75,2,4,4,4
3998.75,4,5,4,4
3998.76,3,4,6,4
3998.76,1,0,0,1
3998.76,1,-1,-1,2
3998.76,3,2,3,5
3998.76,5,4,4,5
3998.76,5,4,5,5
3998.76,4,2,2,3
3998.76,3,1,1,2
3998.76,3,1,-1,1
3998.76,2,0,-3,0
3998.76,3,1,0,3
3998.76,4,0,0,6
3998.76,5,1,3,8
3998.76,8,3,4,7
3998.76,6,0,1,6
3998.76,6,0,1,5
3998.76,5,1,0,3
3998.76,4,1,0,2
3998.77,6,4,1,2
3998.77,6,5,2,1
3998.77,5,5,0,-1
3998.77,5,8,3,0
3998.77,5,9,4,0
3998.77,4,10,6,0
3998.77,2,9,7,-1
3998.77,0,7,5,-2
3998.77,-2,4,5,-3
3998.77,-4,3,7,0
3998.77,-4,1,6,0
3998.77,-4,-1,0,-3
3998.77,-3,-1,0,-1
3998.77,0,2,3,2
3998.77,3,4,5,4
3998.77,2,4,6,5
3998.77,3,3,6,7
3998.78,5,4,4,3
3998.78,2,1,0,1
3998.78,2,0,-3,-1
3998.78,2,0,-3,-1
3998.78,4,2,-1,0
3998.78,6,4,-1,1
3998.78,9,7,2,4
3998.78,10,8,3,6
3998.78,9,6,2,4
3998.78,7,5,3,5
3998.78,7,3,2,5
3998.78,3,-2,-2,3
3998.78,3,-3,-3,3
3998.78,4,0,0,3
3998.78,4,1,0,4
3998.78,4,3,5,6
3998.78,5,3,5,6
3998.78,3,2,4,4
3998.79,3,1,3,4
3998.79,1,0,0,2
3998.79,2,0,-2,0
3998.79,4,5,3,2
3998.79,5,8,4,0
3998.79,3,9,7,0
3998.79,2,10,8,-1
3998.79,0,9,7,-2
3998.79,-1,5,3,-4
3998.79,-4,2,1,-5
3998.79,-4,1,0,-5
3998.79,-4,0,0,-1
3998.79,-1,0,1,0
3998.79,1,3,4,4
3998.79,3,3,6,6
3998.79,4,4,5,7
3998.79,6,5,6,7
3998.8,7,6,5,6
3998.8,6,6,4,3
3998.8,2,1,1,0
3998.8,0,0,0,1
3998.8,1,1,3,3
3998.8,3,2,1,3
3998.8,4,2,0,2
3998.8,3,2,0,2
3998.8,3,1,0,0
3998.8,2,2,2,4
3998.8,3,0,2,6
3998.8,3,0,1,7
3998.8,6,1,2,8
3998.8,5,0,0,4
3998.8,4,-4,-8,0
3998.8,5,0,-9,-3
3998.8,7,3,-6,-1
3998.81,10,10,0,2
3998.81,11,12,7,8
3998.81,12,12,10,10
3998.81,11,11,9,6
3998.81,8,10,9,3
3998.81,2,8,7,0
3998.81,-2,3,2,-4
3998.81,-6,0,0,-7
3998.81,-5,3,3,-4
3998.81,-5,2,5,-1
3998.81,-5,0,2,-2
3998.81,-4,0,1,-1
3998.81,-2,0,0,-1
3998.81,-1,0,0,0
3998.81,0,2,1,1
3998.81,3,4,4,3
3998.81,6,7,8,8
3998.81,7,7,9,8
3998.82,6,4,5,5
3998.82,4,3,1,2
3998.82,3,2,2,3
3998.82,3,1,0,1
3998.82,1,-1,-2,-1
3998.82,2,0,-2,0
3998.82,4,1,-2,0
3998.82,4,1,-1,3
3998.82,6,2,2,6
3998.82,8,3,3,7
3998.82,8,3,4,8
3998.82,7,1,3,8
3998.82,6,0,0,6
3998.82,4,-1,0,5
3998.82,5,0,-1,5
3998.82,6,3,2,5
3998.82,6,5,3,3
3998.83,4,6,5,3
3998.83,3,5,3,0
3998.83,0,1,-1,-2
3998.83,0,2,0,-2
3998.83,0,5,3,-1
3998.83,1,5,3,-1
3998.83,1,5,2,-2
3998.83,1,6,2,-2
3998.83,2,9,5,-1
3998.83,0,8,8,1
3998.83,0,9,12,5
3998.83,0,5,8,3
3998.83,-1,0,2,0
3998.83,-2,-1,-1,-2
3998.83,-2,-2,-1,-1
3998.83,0,1,0,1
3998.83,3,2,0,2
3998.83,6,5,1,3
3998.84,7,4,1,3
3998.84,5,4,1,3
3998.84,6,5,3,4
3998.84,5,5,5,5
3998.84,6,4,4,5
3998.84,5,3,3,4
3998.84,4,4,4,4
3998.84,1,0,0,1
3998.84,1,0,0,2
3998.84,2,0,0,2
3998.84,2,-1,-1,3
3998.84,3,-3,-2,2
3998.84,4,-1,-2,4
3998.84,4,0,-1,5
3998.84,7,1,1,8
3998.84,11,6,4,7
3998.84,9,5,1,3
3998.85,6,5,1,2
3998.85,6,6,3,2
3998.85,4,6,4,2
3998.85,5,7,5,2
3998.85,3,8,4,-3
3998.85,0,6,2,-4
3998.85,-1,6,3,-3
3998.85,-1,7,4,-4
3998.85,-2,5,3,-3
3998.85,-3,3,3,-3
3998.85,-2,3,5,0
3998.85,0,3,6,3
3998.85,0,1,4,2
3998.85,0,0,1,1
3998.85,0,-1,0,2
3998.85,2,2,3,4
3998.85,3,4,4,4
3998.85,4,4,3,4
3998.86,4,2,1,3
3998.86,5,2,-1,1
3998.86,4,2,0,1
3998.86,5,4,1,2
3998.86,5,6,5,5
3998.86,8,8,8,7
3998.86,6,7,8,7
3998.86,4,3,3,3
3998.86,0,0,0,0
3998.86,-1,-5,-3,-1
3998.86,-2,-7,-5,1
3998.86,1,-6,-4,4
3998.86,4,-3,-3,5
3998.86,6,-2,-4,6
3998.86,11,4,0,8
3998.86,12,7,5,10
3998.86,13,10,9,9
3998.87,10,9,8,5
3998.87,5,4,1,0
3998.87,2,4,0,-1
3998.87,3,7,3,-2
3998.87,1,6,1,-6
3998.87,0,8,2,-5
3998.87,0,10,4,-6
3998.87,-1,8,1,-8
3998.87,-3,6,4,-3
3998.87,-1,9,13,6
3998.87,1,7,13,7
3998.87,-2,0,8,5
3998.87,-3,-1,6,4
3998.87,-3,-2,4,2
3998.87,-3,-4,0,0
3998.87,-3,-3,-3,-2
3998.87,-2,-3,-3,-3
3998.88,0,0,-4,-1
3998.88,2,1,-4,-2
3998.88,5,6,1,3
3998.88,11,11,8,11
3998.88,16,14,11,12
3998.88,14,12,7,7
3998.88,9,6,2,3
3998.88,5,3,0,0
3998.88,2,2,0,0
3998.88,2,1,0,1
3998.88,2,0,-1,2
3998.88,2,-2,-2,2
3998.88,1,-3,-3,3
3998.88,2,-3,-2,4
3998.88,4,-1,0,7
3998.88,8,2,3,8
3998.88,9,4,2,5
3998.89,8,5,2,3
3998.89,6,6,4,3
3998.89,5,7,5,3
3998.89,4,6,4,2
3998.89,3,7,5,0
3998.89,0,5,4,-1
3998.89,0,6,5,-1
3998.89,-1,6,6,0
3998.89,-2,6,7,-1
3998.89,-4,3,6,-1
3998.89,-4,1,2,-3
3998.89,-6,-1,0,-4
3998.89,-4,-1,0,-1
3998.89,0,0,0,0
3998.89,1,2,0,1
3998.89,4,4,3,4
3998.89,6,4,1,3
3998.89,6,4,-1,0
3998.9,7,6,1,3
3998.9,9,8,5,6
3998.9,8,8,6,7
3998.9,8,6,4,6
3998.9,7,4,3,5
3998.9,4,1,1,3
3998.9,3,0,-1,0
3998.9,2,0,0,1
3998.9,2,0,0,0
3998.9,2,0,-2,0
3998.9,1,-3,-3,3
3998.9,5,0,1,7
3998.9,7,0,1,8
3998.9,7,1,1,7
3998.9,7,2,2,8
3998.9,8,4,4,8
3998.9,7,4,5,6
3998.91,6,6,4,2
3998.91,1,4,4,1
3998.91,0,3,2,0
3998.91,0,3,2,-1
3998.91,0,3,2,-3
3998.91,-1,5,2,-3
3998.91,0,7,4,-1
3998.91,0,7,4,-3
3998.91,0,7,3,-3
3998.91,0,7,4,-2
3998.91,0,6,5,-1
3998.91,0,4,4,0
3998.91,0,5,5,3
3998.91,1,2,3,2
3998.91,1,0,1,1
3998.91,0,0,1,2
3998.91,1,1,3,4
3998.91,2,2,4,6
3998.92,3,1,1,4
3998.92,2,0,0,1
3998.92,1,0,0,2
3998.92,2,0,1,4
3998.92,5,3,3,5
3998.92,8,6,4,6
3998.92,8,8,6,5
3998.92,7,7,5,4
3998.92,4,4,2,2
3998.92,2,-1,-2,1
3998.92,0,-5,-4,2
3998.92,3,-2,-2,4
3998.92,5,-1,-2,3
3998.92,6,0,0,6
3998.92,9,3,2,7
3998.92,8,4,2,5
3998.92,8,5,2,4
3998.93,6,5,4,2
3998.93,4,5,3,2
3998.93,3,4,2,0
3998.93,2,5,4,-1
3998.93,0,6,3,-2
3998.93,0,8,5,-1
3998.93,0,6,5,-2
3998.93,-1,5,3,-2
3998.93,-2,4,3,-2
3998.93,-2,3,3,0
3998.93,-1,5,7,2
3998.93,0,3,6,3
3998.93,0,1,3,2
3998.93,0,0,0,0
3998.93,0,0,-1,-1
3998.93,0,0,0,0
3998.93,1,1,0,1
3998.93,4,3,0,3
3998.94,7,6,2,4
3998.94,9,10,7,7
3998.94,9,11,10,7
3998.94,6,5,3,1
3998.94,2,2,1,0
3998.94,2,1,0,0
3998.94,1,0,0,0
3998.94,0,-2,-2,0
3998.94,1,-2,-2,3
3998.94,4,0,0,6
3998.94,7,2,4,10
3998.94,9,2,2,8
3998.94,7,0,0,4
3998.94,4,0,0,6
3998.94,7,1,1,6
3998.94,6,3,2,5
3998.94,6,4,1,3
3998.95,4,5,3,2
3998.95,2,5,7,5
3998.95,3,5,8,4
3998.95,1,5,7,2
3998.95,-1,3,5,0
3998.95,-2,4,4,-3
3998.95,-4,2,3,-4
3998.95,-4,0,0,-7
3998.95,-5,-1,-6,-10
3998.95,-3,1,-7,-9
3998.95,1,7,-1,-4
3998.95,5,10,5,3
3998.95,8,11,9,8
3998.95,10,10,7,7
3998.95,8,7,6,5
3998.95,6,7,5,4
3998.95,5,4,4,4
3998.96,3,3,3,3
3998.96,2,1,1,2
3998.96,1,0,0,0
3998.96,1,1,1,2
3998.96,2,1,2,3
3998.96,2,1,2,3
3998.96,2,2,2,3
3998.96,4,3,3,3
3998.96,3,2,0,0
3998.96,0,-2,-4,0
3998.96,1,-2,-3,2
3998.96,4,-2,-5,1
3998.96,7,0,-3,4
3998.96,9,3,0,6
3998.96,10,5,3,7
3998.96,9,5,4,8
3998.96,10,7,6,7
3998.96,7,8,9,8
3998.97,5,9,14,11
3998.97,2,4,10,5
3998.97,-3,-1,3,0
3998.97,-6,-3,-1,-6
3998.97,-6,-2,-3,-9
3998.97,-4,1,-3,-8
3998.97,-3,2,-2,-6
3998.97,0,5,2,-1
3998.97,3,10,8,3
3998.97,5,10,9,5
3998.97,5,9,9,5
3998.97,3,5,7,3
3998.97,1,3,3,1
3998.97,0,1,2,1
3998.97,0,0,1,0
3998.97,0,0,-1,0
3998.97,0,0,0,2
3998.98,3,0,0,3
3998.98,5,3,0,4
3998.98,7,4,0,2
3998.98,7,5,1,1
3998.98,5,4,1,3
3998.98,6,6,4,4
3998.98,7,6,3,4
3998.98,6,5,3,4
3998.98,3,2,0,1
3998.98,1,0,0,2
3998.98,0,-1,2,7
3998.98,2,-3,0,6
3998.98,2,-3,-1,3
3998.98,2,-4,-4,2
3998.98,4,-1,-5,0
3998.98,5,3,0,4
3998.98,10,8,4,6
3998.98,11,10,6,5
3998.99,9,11,7,5
3998.99,8,9,5,2
3998.99,4,8,5,0
3998.99,1,7,5,-2
3998.99,-1,5,3,-4
3998.99,-2,5,4,-2
3998.99,-2,5,4,-3
3998.99,-2,4,3,-4
3998.99,-4,1,2,-3
3998.99,-3,4,5,0
3998.99,-1,3,5,2
3998.99,0,1,2,0
3998.99,0,1,0,0
3998.99,1,0,0,1
3998.99,2,2,3,3
3998.99,4,4,5,6
3998.99,6,5,4,4
3999,5,4,3,4
3999,4,3,2,2
3999,2,2,1,3
3999,4,2,3,3
3999,5,5,3,3
3999,5,2,1,2
3999,3,1,0,1
3999,2,0,0,1
3999,3,1,-1,2
3999,3,0,-2,4
3999,5,0,-1,5
3999,7,1,0,6
3999,8,2,0,5
3999,7,2,2,7
3999,8,5,4,7
3999,6,4,4,6
3999,5,4,5,5
3999,3,2,1,1
3999.01,1,1,0,0
3999.01,0,1,0,0
3999.01,2,5,4,0
3999.01,2,6,5,-1
3999.01,1,7,5,-2
3999.01,0,8,6,0
3999.01,0,8,6,-2
3999.01,0,6,4,-2
3999.01,-1,4,3,-2
3999.01,-1,3,3,-2
3999.01,-2,0,1,-1
3999.01,-1,0,0,0
3999.01,1,2,2,1
3999.01,3,2,2,2
3999.01,4,4,3,4
3999.01,5,5,5,6
3999.01,5,4,5,5
3999.02,5,3,3,4
3999.02,4,3,2,3
3999.02,3,1,0,2
3999.02,3,2,1,2
3999.02,4,2,1,3
3999.02,4,1,0,2
3999.02,5,2,0,0
3999.02,4,2,0,0
3999.02,4,3,0,2
3999.02,4,0,0,2
3999.02,4,0,-2,3
3999.02,5,0,0,5
3999.02,6,2,3,8
3999.02,6,2,4,9
3999.02,6,5,10,12
3999.02,7,5,8,9
3999.02,6,3,5,5
3999.03,2,1,3,2
3999.03,-1,0,2,0
3999.03,-3,0,1,-1
3999.03,-3,1,1,-2
3999.03,-1,2,0,-4
3999.03,-1,2,-3,-8
3999.03,-1,4,-3,-8
3999.03,2,8,-1,-6
3999.03,4,14,9,1
3999.03,6,15,13,6
3999.03,6,11,10,4
3999.03,2,4,4,2
3999.03,0,-1,0,1
3999.03,0,-4,-3,0
3999.03,1,0,-1,2
3999.03,4,2,1,4
3999.03,7,6,4,6
3999.03,8,6,3,3
3999.04,5,4,2,1
3999.04,4,4,2,2
3999.04,5,3,0,1
3999.04,3,3,1,1
3999.04,3,5,4,4
3999.04,3,4,6,5
3999.04,2,2,7,6
3999.04,0,0,4,4
3999.04,-1,-4,-2,0
3999.04,-2,-9,-7,0
3999.04,0,-6,-4,3
3999.04,4,0,0,7
3999.04,7,2,1,8
3999.04,10,4,4,10
3999.04,10,4,4,7
3999.04,7,3,2,4
3999.04,6,3,2,2
3999.05,4,4,3,2
3999.05,5,6,3,1
3999.05,4,6,2,-1
3999.05,3,9,5,-2
3999.05,1,9,6,-2
3999.05,-1,6,4,-3
3999.05,-1,6,4,-3
3999.05,-1,7,5,-2
3999.05,-1,5,3,-3
3999.05,-2,3,2,-3
3999.05,-2,2,0,-2
3999.05,-1,0,1,1
3999.05,1,1,0,2
3999.05,2,1,1,2
3999.05,4,3,4,5
3999.05,6,6,5,7
3999.05,6,7,6,7
3999.05,6,4,3,3
3999.06,3,2,2,3
3999.06,2,1,2,2
3999.06,1,0,2,3
3999.06,2,0,0,4
3999.06,4,2,1,3
3999.06,4,4,3,4
3999.06,4,3,2,2
3999.06,3,2,1,2
3999.06,3,0,0,1
3999.06,3,-1,-3,3
3999.06,5,0,-1,5
3999.06,6,-1,-3,4
3999.06,6,-1,-2,5
3999.06,8,1,0,6
3999.06,9,4,0,5
3999.06,10,8,4,5
3999.06,6,7,4,3
3999.07,3,4,6,3
3999.07,0,3,5,2
3999.07,2,6,6,1
3999.07,2,7,5,0
3999.07,0,7,4,-2
3999.07,-1,6,4,-2
3999.07,0,7,5,-3
3999.07,-1,7,6,-1
3999.07,-2,5,6,-1
3999.07,-3,3,5,-1
3999.07,-4,0,1,-1
3999.07,-3,-1,0,-1
3999.07,-1,-1,-3,-3
3999.07,0,-1,-4,-1
3999.07,2,0,-3,0
3999.07,6,3,0,3
3999.07,10,9,6,9
3999.07,12,11,8,9
3999.08,11,8,4,5
3999.08,9,8,6,7
3999.08,8,6,6,6
3999.08,5,3,3,2
3999.08,2,1,2,1
3999.08,0,0,2,0
3999.08,0,0,0,0
3999.08,0,-1,-2,-1
3999.08,0,-2,-3,0
3999.08,1,-1,0,5
3999.08,4,-1,0,6
3999.08,5,-2,-2,6
3999.08,5,-4,-5,5
3999.08,10,4,2,9
3999.08,11,9,9,10
3999.08,10,10,10,8
3999.08,6,7,7,3
3999.09,2,4,4,1
3999.09,2,3,2,0
3999.09,0,2,1,-3
3999.09,-2,4,3,-1
3999.09,-1,6,6,0
3999.09,0,5,5,0
3999.09,-1,3,1,-4
3999.09,-3,2,1,-5
3999.09,-3,2,3,-2
3999.09,-2,4,5,1
3999.09,1,3,5,3
3999.09,2,3,4,3
3999.09,2,2,3,1
3999.09,1,3,2,1
3999.09,4,4,0,1
3999.09,5,5,0,1
3999.09,4,5,1,1
3999.1,3,2,0,0
3999.1,2,-1,-4,-1
3999.1,4,3,0,3
3999.1,8,7,3,6
3999.1,10,9,6,7
3999.1,9,6,4,5
3999.1,6,5,2,4
3999.1,5,4,5,6
3999.1,5,2,1,2
3999.1,0,-3,-4,0
3999.1,1,-5,-6,0
3999.1,3,0,1,8
3999.1,7,2,5,10
3999.1,7,1,3,8
3999.1,5,2,3,6
3999.1,4,1,1,4
3999.1,3,2,1,1
3999.1,1,2,1,0
3999.11,2,3,3,1
3999.11,2,4,3,0
3999.11,2,5,3,0
3999.11,0,7,4,-2
3999.11,0,8,6,-1
3999.11,0,8,6,-2
3999.11,-1,6,5,-2
3999.11,-2,4,2,-2
3999.11,-2,2,1,-3
3999.11,-2,0,-1,-2
3999.11,-1,0,0,1
3999.11,3,3,3,4
3999.11,6,7,6,6
3999.11,7,7,6,5
3999.11,5,5,3,3
3999.11,3,3,2,3
3999.11,3,3,2,3
3999.12,4,3,2,3
3999.12,3,2,2,3
3999.12,4,3,2,3
3999.12,3,2,0,2
3999.12,3,1,0,2
3999.12,4,2,1,2
3999.12,5,3,1,2
3999.12,5,2,0,2
3999.12,5,1,-1,2
3999.12,3,-2,-3,3
3999.12,5,0,0,5
3999.12,6,1,0,6
3999.12,5,-1,-2,3
3999.12,6,2,1,5
3999.12,7,4,5,7
3999.12,6,5,5,5
3999.12,4,5,4,4
3999.12,3,4,4,0
3999.13,0,2,3,1
3999.13,1,4,5,0
3999.13,1,7,5,0
3999.13,0,8,6,-1
3999.13,0,7,6,-1
3999.13,-2,5,3,-3
3999.13,-3,3,1,-3
3999.13,-4,1,0,-3
3999.13,-1,3,2,-1
3999.13,0,3,3,0
3999.13,2,3,2,1
3999.13,3,5,3,2
3999.13,3,5,4,3
3999.13,5,4,4,4
3999.13,6,4,3,4
3999.13,5,2,1,3
3999.13,3,0,0,1
3999.14,4,2,0,1
3999.14,4,3,1,2
3999.14,4,3,1,2
3999.14,3,2,1,3
3999.14,4,2,1,3
3999.14,4,3,3,4
3999.14,2,2,3,4
3999.14,2,2,6,8
3999.14,3,0,3,6
3999.14,2,-4,-2,4
3999.14,3,-3,-3,4
3999.14,5,0,-1,4
3999.14,6,1,0,4
3999.14,7,3,3,5
3999.14,8,6,4,5
3999.14,6,6,5,4
3999.14,5,5,3,1
3999.15,3,4,1,0
3999.15,1,2,0,0
3999.15,1,2,0,-1
3999.15,2,4,0,-2
3999.15,3,8,4,-1
3999.15,2,10,6,0
3999.15,2,9,6,0
3999.15,1,8,5,-1
3999.15,1,7,5,-1
3999.15,-1,4,4,-1
3999.15,-3,2,4,0
3999.15,-2,0,4,3
3999.15,0,1,5,3
3999.15,0,0,0,1
3999.15,-1,-2,-1,0
3999.15,-1,-2,-2,0
3999.15,1,2,5,6
3999.15,6,6,8,9
3999.16,7,5,6,6
3999.16,5,3,2,3
3999.16,4,1,-2,0
3999.16,2,2,0,1
3999.16,2,1,0,3
3999.16,5,2,0,3
3999.16,8,5,0,2
3999.16,6,3,0,1
3999.16,3,0,-1,2
3999.16,4,0,-1,5
3999.16,7,1,0,7
3999.16,8,3,1,7
3999.16,9,3,2,7
3999.16,8,4,3,6
3999.16,7,4,3,4
3999.16,4,4,2,3
3999.16,3,3,3,2
3999.17,3,4,2,0
3999.17,0,2,1,-2
3999.17,-1,3,2,-2
3999.17,0,6,4,-1
3999.17,1,7,3,-3
3999.17,0,8,5,-1
3999.17,0,9,7,-1
3999.17,-1,6,4,-2
3999.17,-2,4,3,-1
3999.17,-1,4,4,0
3999.17,0,2,3,2
3999.17,1,3,6,4
3999.17,0,0,2,2
3999.17,0,0,1,3
3999.17,1,1,3,5
3999.17,4,2,3,4
3999.17,4,3,2,2
3999.18,2,0,0,1
3999.18,3,1,-1,0
3999.18,5,4,0,1
3999.18,7,7,2,2
3999.18,7,5,1,2
3999.18,6,4,1,3
3999.18,6,5,2,3
3999.18,7,5,3,4
3999.18,6,3,1,2
3999.18,2,-1,0,3
3999.18,2,-2,-1,4
3999.18,3,-1,0,6
3999.18,6,0,0,7
3999.18,7,0,1,6
3999.18,5,0,0,6
3999.18,5,0,-1,2
3999.18,5,2,0,2
3999.18,4,5,4,3
3999.19,4,6,5,3
3999.19,4,8,8,4
3999.19,4,9,8,2
3999.19,2,9,9,1
3999.19,0,8,8,-2
3999.19,-4,3,4,-4
3999.19,-5,1,1,-6
3999.19,-5,0,0,-5
3999.19,-4,1,-1,-6
3999.19,-2,0,-5,-6
3999.19,0,0,-3,-2
3999.19,3,6,4,5
3999.19,8,10,8,8
3999.19,9,9,6,6
3999.19,7,7,6,5
3999.19,6,6,6,6
3999.19,3,1,1,3
3999.2,2,0,1,3
3999.2,3,2,3,4
3999.2,3,1,2,3
3999.2,3,1,0,1
3999.2,1,1,-1,0
3999.2,2,1,0,1
3999.2,1,1,0,1
3999.2,2,0,0,2
3999.2,1,-1,0,4
3999.2,4,-1,-1,6
3999.2,6,0,0,7
3999.2,8,1,0,8
3999.2,8,1,0,8
3999.2,10,4,3,8
3999.2,10,6,2,5
3999.2,8,7,4,3
3999.2,5,6,4,1
3999.2,4,7,5,0
3999.21,2,6,6,1
3999.21,1,6,6,0
3999.21,0,5,5,-2
3999.21,-2,4,3,-4
3999.21,-4,2,2,-5
3999.21,-4,3,2,-3
3999.21,-3,2,2,-3
3999.21,-2,3,2,-1
3999.21,0,3,2,-1
3999.21,0,2,-1,-1
3999.21,1,3,0,0
3999.21,4,5,3,3
3999.21,6,7,6,5
3999.21,6,7,8,9
3999.21,6,6,8,8
3999.21,4,2,3,4
3999.21,2,1,1,1
3999.22,1,0,0,0
3999.22,0,-1,0,0
3999.22,0,-2,-1,1
3999.22,2,0,0,3
3999.22,5,4,4,6
3999.22,7,6,5,6
3999.22,5,3,1,3
3999.22,4,1,-1,0
3999.22,3,-1,-5,0
3999.22,6,0,-3,3
3999.22,8,2,-1,5
3999.22,9,4,3,10
3999.22,10,5,6,11
3999.22,10,6,7,9
3999.22,6,2,1,3
3999.22,1,0,-2,0
3999.22,0,-2,-5,-4
3999.22,0,0,-2,0
3999.23,3,5,3,2
3999.23,6,9,5,1
3999.23,6,12,9,2
3999.23,5,11,9,1
3999.23,2,9,7,0
3999.23,0,7,7,0
3999.23,-2,4,3,-3
3999.23,-5,0,0,-6
3999.23,-6,-1,-2,-5
3999.23,-4,0,-1,-2
3999.23,0,3,3,3
3999.23,3,5,6,5
3999.23,4,4,4,4
3999.23,3,2,3,3
3999.23,3,0,0,1
3999.23,3,3,0,1
3999.23,4,2,-2,0
3999.24,6,4,0,3
3999.24,8,6,2,5
3999.24,9,7,4,6
3999.24,8,6,4,5
3999.24,5,4,5,5
3999.24,4,3,6,6
3999.24,3,4,7,6
3999.24,2,3,7,5
3999.24,-1,-5,0,1
3999.24,-5,-10,-8,-3
3999.24,-3,-8,-8,-2
3999.24,0,-3,-6,0
3999.24,5,1,-1,4
3999.24,9,5,3,8
3999.24,12,8,6,9
3999.24,11,10,7,8
3999.24,10,8,6,5
3999.25,6,6,2,1
3999.25,2,5,3,0
3999.25,1,4,3,-1
3999.25,0,8,6,0
3999.25,1,9,7,0
3999.25,0,7,6,-3
3999.25,-2,3,0,-7
3999.25,-6,0,0,-4
3999.25,-3,3,2,-1
3999.25,0,4,2,-1
3999.25,0,4,3,1
3999.25,2,4,4,3
3999.25,2,4,5,4
3999.25,2,3,4,4
3999.25,3,3,4,5
3999.25,3,3,3,4
3999.25,3,5,5,5
3999.25,3,3,3,2
3999.26,1,0,0,1
3999.26,2,0,-2,0
3999.26,2,1,0,1
3999.26,3,1,0,2
3999.26,3,-2,-4,1
3999.26,6,1,-1,4
3999.26,9,5,3,6
3999.26,7,4,3,7
3999.26,6,1,1,7
3999.26,7,2,3,9
3999.26,9,3,4,8
3999.26,7,0,1,5
3999.26,5,0,0,4
3999.26,3,0,0,3
3999.26,3,1,0,2
3999.26,3,2,0,0
3999.26,1,2,0,0
3999.27,1,2,-1,-2
3999.27,3,5,0,-1
3999.27,3,10,7,1
3999.27,5,12,9,1
3999.27,2,8,6,0
3999.27,0,7,4,-3
3999.27,0,4,2,-3
3999.27,-1,3,1,-3
3999.27,-1,3,1,-2
3999.27,-1,2,2,0
3999.27,0,2,3,1
3999.27,2,4,5,3
3999.27,3,3,2,3
3999.27,3,3,3,3
3999.27,2,2,2,3
3999.27,2,1,1,3
3999.27,4,4,7,8
3999.27,5,5,9,10
3999.28,4,3,6,7
3999.28,1,0,4,5
3999.28,1,0,2,4
3999.28,0,-2,-2,0
3999.28,0,-1,-4,-3
3999.28,0,1,-3,-3
3999.28,3,3,-1,-2
3999.28,3,3,-1,0
3999.28,5,2,0,5
3999.28,8,3,1,7
3999.28,10,6,5,9
3999.28,7,2,3,8
3999.28,7,2,3,7
3999.28,6,0,0,4
3999.28,5,1,-1,2
3999.28,5,2,0,2
3999.28,4,3,1,2
3999.29,5,5,3,2
3999.29,7,10,6,1
3999.29,4,10,6,-1
3999.29,1,8,5,-2
3999.29,0,5,2,-4
3999.29,-2,6,4,-3
3999.29,-1,6,5,-2
3999.29,-2,3,2,-2
3999.29,-3,0,0,-3
3999.29,-5,-2,0,-1
3999.29,-2,0,1,2
3999.29,1,0,2,3
3999.29,2,0,1,2
3999.29,3,4,5,5
3999.29,6,5,4,6
3999.29,8,7,6,7
3999.29,8,8,8,8
3999.29,7,7,6,6
3999.3,4,2,2,3
3999.3,2,0,-1,0
3999.3,2,0,-2,-1
3999.3,3,1,0,1
3999.3,4,3,1,2
3999.3,4,4,1,2
3999.3,3,3,2,3
3999.3,3,-1,-2,2
3999.3,2,-3,-4,2
3999.3,3,-2,-3,4
3999.3,6,0,0,7
3999.3,9,3,4,11
3999.3,10,7,10,12
3999.3,8,5,7,8
3999.3,4,2,2,1
3999.3,0,0,0,0
3999.3,0,2,0,0
3999.31,1,3,1,-2
3999.31,0,5,2,-2
3999.31,0,6,4,-1
3999.31,0,6,5,-1
3999.31,0,7,5,-1
3999.31,0,6,4,-1
3999.31,0,5,3,-2
3999.31,0,4,3,-2
3999.31,0,4,4,0
3999.31,0,2,2,1
3999.31,0,2,3,1
3999.31,2,3,3,3
3999.31,3,5,5,4
3999.31,4,5,4,4
3999.31,3,3,2,2
3999.31,2,1,1,2
3999.31,2,0,0,1
3999.32,2,1,1,2
3999.32,4,2,1,4
3999.32,5,4,3,5
3999.32,6,4,2,4
3999.32,5,4,1,2
3999.32,4,3,0,2
3999.32,3,3,1,1
3999.32,2,1,0,1
3999.32,1,-3,-3,1
3999.32,2,-3,-2,3
3999.32,5,0,0,6
3999.32,7,2,2,9
3999.32,10,4,1,7
3999.32,9,4,1,4
3999.32,6,5,3,5
3999.32,7,6,5,5
3999.32,7,7,5,4
3999.32,4,3,2,1
3999.33,1,1,0,-3
3999.33,0,1,-1,-4
3999.33,0,4,0,-4
3999.33,0,7,5,-2
3999.33,0,8,7,-1
3999.33,-1,8,9,0
3999.33,0,7,6,0
3999.33,-2,5,3,-2
3999.33,-1,3,3,-1
3999.33,0,3,5,3
3999.33,0,0,2,2
3999.33,2,1,1,2
3999.33,3,3,3,3
3999.33,2,2,4,4
3999.33,2,2,3,5
3999.33,3,0,1,5
3999.33,4,0,-1,2
3999.34,4,2,1,3
3999.34,5,3,1,2
3999.34,4,1,-1,2
3999.34,5,3,0,4
3999.34,8,7,5,6
3999.34,7,6,2,2
3999.34,4,2,0,1
3999.34,3,1,-1,1
3999.34,2,-1,-1,3
3999.34,5,0,0,5
3999.34,7,0,-1,4
3999.34,5,0,0,5
3999.34,6,3,5,8
3999.34,7,5,8,9
3999.34,6,3,5,6
3999.34,3,2,3,2
3999.34,2,2,3,2
3999.34,0,1,1,0
3999.35,1,3,2,-1
3999.35,1,6,3,-2
3999.35,1,6,2,-4
3999.35,0,6,2,-3
3999.35,0,7,5,-2
3999.35,0,8,8,0
3999.35,-1,4,5,0
3999.35,-1,1,1,-3
3999.35,-1,0,-1,-2
3999.35,0,2,0,0
3999.35,4,5,2,2
3999.35,5,5,3,2
3999.35,5,5,1,1
3999.35,6,6,2,2
3999.35,7,9,7,5
3999.35,7,7,6,5
3999.35,5,3,4,4
3999.36,3,1,3,5
3999.36,4,1,2,4
3999.36,2,0,0,1
3999.36,0,-1,-1,0
3999.36,0,-1,0,3
3999.36,3,2,4,7
3999.36,5,4,4,5
3999.36,2,-1,-1,2
3999.36,0,-4,-2,3
3999.36,2,-3,-1,5
3999.36,5,-3,-6,1
3999.36,5,-1,-7,0
3999.36,8,4,-4,0
3999.36,11,8,0,3
3999.36,12,11,4,5
3999.36,12,13,8,7
3999.36,11,13,11,7
3999.36,8,11,9,5
3999.37,4,11,13,6
3999.37,1,6,9,0
3999.37,-6,1,3,-5
3999.37,-10,-4,-1,-6
3999.37,-11,-6,-4,-8
3999.37,-9,-4,-3,-6
3999.37,-4,0,0,-1
3999.37,1,6,5,2
3999.37,4,7,7,4
3999.37,5,7,6,4
3999.37,4,5,3,1
3999.37,2,4,4,3
3999.37,3,6,7,7
3999.37,5,6,6,4
3999.37,4,3,3,1
3999.37,1,0,0,0
3999.37,0,0,-1,-1
3999.38,0,0,-1,1
3999.38,4,3,2,4
3999.38,6,5,3,4
3999.38,6,4,1,4
3999.38,4,2,1,3
3999.38,6,4,1,3
3999.38,6,6,7,7
3999.38,5,1,5,8
3999.38,2,-5,-2,4
3999.38,2,-3,-1,4
3999.38,3,-2,-2,4
3999.38,3,-3,-2,3
3999.38,4,0,-1,4
3999.38,6,3,2,5
3999.38,7,4,3,5
3999.38,7,5,3,4
3999.38,6,5,3,2
3999.39,4,6,3,2
3999.39,4,8,6,1
3999.39,3,8,5,-1
3999.39,1,9,5,-3
3999.39,0,9,5,-4
3999.39,-1,7,5,-4
3999.39,-2,5,3,-5
3999.39,-3,2,0,-5
3999.39,-3,1,0,-4
3999.39,-3,0,0,-1
3999.39,-1,0,0,1
3999.39,1,1,2,5
3999.39,5,2,2,6
3999.39,7,4,2,5
3999.39,6,4,2,4
3999.39,5,4,4,6
3999.39,6,6,5,6
3999.4,7,6,5,7
3999.4,6,5,5,6
3999.4,5,5,6,6
3999.4,4,4,6,5
3999.4,1,2,5,4
3999.4,0,-1,1,1
3999.4,-1,-2,-1,-1
3999.4,-2,-3,-4,-1
3999.4,-1,-6,-7,-1
3999.4,1,-4,-5,2
3999.4,6,0,-1,4
3999.4,7,1,-5,2
3999.4,10,6,0,3
3999.4,12,10,5,7
3999.4,12,11,8,8
3999.4,10,7,5,5
3999.4,6,4,2,4
3999.4,5,4,3,4
3999.41,5,7,6,4
3999.41,4,7,5,0
3999.41,2,6,3,-3
3999.41,-1,5,2,-4
3999.41,-1,4,1,-6
3999.41,-4,2,1,-5
3999.41,-4,2,1,-4
3999.41,-2,3,2,-2
3999.41,0,3,3,0
3999.41,1,2,0,0
3999.41,2,2,0,0
3999.41,3,4,4,3
3999.41,4,5,4,4
3999.41,5,5,5,6
3999.41,5,6,6,6
3999.41,4,4,4,4
3999.41,2,0,1,3
3999.42,2,1,5,6
3999.42,3,2,6,8
3999.42,3,0,0,2
3999.42,1,-1,-3,0
3999.42,1,1,0,2
3999.42,3,3,4,5
3999.42,4,4,5,5
3999.42,3,2,3,4
3999.42,1,-2,-1,2
3999.42,1,-3,-3,1
3999.42,1,-3,-2,2
3999.42,1,-3,-3,3
3999.42,4,-1,-1,4
3999.42,7,2,0,6
3999.42,10,8,3,4
3999.42,9,9,3,3
3999.42,8,9,5,4
3999.42,8,10,8,6
3999.43,8,12,10,4
3999.43,5,9,7,0
3999.43,0,5,3,-4
3999.43,-4,3,1,-5
3999.43,-3,3,1,-5
3999.43,-3,3,2,-4
3999.43,-2,2,0,-4
3999.43,-3,2,1,-2
3999.43,-2,1,2,0
3999.43,0,4,7,4
3999.43,3,4,6,5
3999.43,2,2,3,3
3999.43,1,0,1,1
3999.43,1,1,2,4
3999.43,4,3,2,3
3999.43,3,1,0,4
3999.43,5,2,0,4
3999.44,5,2,1,3
3999.44,5,4,3,4
3999.44,5,4,3,3
3999.44,5,5,5,6
3999.44,5,6,7,6
3999.44,4,3,4,5
3999.44,2,0,0,2
3999.44,0,-6,-7,-1
3999.44,-1,-8,-9,-1
3999.44,3,-3,-7,1
3999.44,7,0,-5,2
3999.44,10,3,-3,3
3999.44,13,9,1,6
3999.44,14,12,8,10
3999.44,14,14,12,11
3999.44,11,11,11,8
3999.44,6,8,10,4
3999.44,1,3,1,-3
3999.45,-3,1,1,-5
3999.45,-6,0,2,-4
3999.45,-4,2,2,-3
3999.45,-4,4,5,-1
3999.45,-2,5,6,-1
3999.45,-1,4,4,-2
3999.45,-3,2,1,-4
3999.45,-4,0,1,-2
3999.45,-2,0,1,0
3999.45,0,3,2,2
3999.45,3,4,4,3
3999.45,4,4,3,3
3999.45,4,4,4,5
3999.45,5,5,4,5
3999.45,4,3,2,4
3999.45,3,0,0,3
3999.45,4,0,0,4
3999.46,6,4,4,5
3999.46,6,6,6,7
3999.46,6,4,5,5
3999.46,4,3,1,2
3999.46,3,1,-1,-1
3999.46,1,0,-3,-1
3999.46,1,0,-1,0
3999.46,1,0,-1,4
3999.46,4,-1,0,7
3999.46,7,0,1,9
3999.46,7,0,2,9
3999.46,7,0,2,8
3999.46,7,3,4,9
3999.46,9,4,3,6
3999.46,6,3,1,1
3999.46,3,3,0,-1
3999.46,1,3,-1,-2
3999.46,2,5,0,-4
3999.47,3,7,3,-1
3999.47,3,9,5,-1
3999.47,2,9,6,-2
3999.47,0,7,4,-3
3999.47,0,7,3,-3
3999.47,0,7,5,-1
3999.47,0,6,6,0
3999.47,-1,4,6,1
3999.47,0,1,3,1
3999.47,-1,0,2,1
3999.47,0,0,3,2
3999.47,0,0,2,3
3999.47,0,1,2,3
3999.47,3,3,4,5
3999.47,4,4,5,5
3999.47,4,4,4,4
3999.47,3,3,4,3
3999.48,2,1,1,2
3999.48,2,0,0,0
3999.48,3,0,-2,1
3999.48,3,0,-2,1
3999.48,4,0,-1,3
3999.48,7,5,2,5
3999.48,9,4,1,5
3999.48,7,1,-1,4
3999.48,7,2,0,5
3999.48,8,4,1,5
3999.48,5,2,2,6
3999.48,5,3,5,7
3999.48,5,2,3,4
3999.48,3,0,2,3
3999.48,0,1,4,3
3999.48,0,0,1,1
3999.48,0,1,1,0
3999.49,3,5,2,0
3999.49,4,8,3,-1
3999.49,4,10,4,-2
3999.49,3,13,9,0
3999.49,2,12,12,1
3999.49,0,4,3,-4
3999.49,-4,1,1,-4
3999.49,-4,2,3,-2
3999.49,-4,0,1,0
3999.49,-2,-1,0,0
3999.49,-1,-1,0,0
3999.49,1,0,0,1
3999.49,5,2,-1,0
3999.49,8,7,1,3
3999.49,9,7,3,5
3999.49,9,8,7,6
3999.49,7,6,4,6
3999.49,7,4,3,4
3999.5,6,5,3,4
3999.5,4,2,1,1
3999.5,1,0,0,0
3999.5,1,1,0,1
3999.5,3,2,0,0
3999.5,2,1,-1,0
3999.5,1,0,-1,3
3999.5,3,-1,0,6
3999.5,6,1,2,8
3999.5,7,1,3,8
3999.5,6,0,1,7
3999.5,6,1,1,5
3999.5,5,2,2,4
3999.5,5,4,3,3
3999.5,3,4,3,1
3999.5,3,4,4,1
3999.5,2,5,4,0
3999.51,2,6,5,0
3999.51,0,6,4,0
3999.51,0,4,3,-1
3999.51,0,3,2,-2
3999.51,0,3,3,-1
3999.51,0,2,0,-2
3999.51,0,4,2,0
3999.51,1,6,4,0
3999.51,-1,4,5,1
3999.51,1,6,7,4
3999.51,1,2,4,2
3999.51,0,0,2,2
3999.51,2,2,2,1
3999.51,2,0,0,2
3999.51,4,2,1,3
3999.51,5,4,3,6
3999.51,7,7,4,4
3999.51,6,7,4,4
3999.52,5,6,3,1
3999.52,2,3,2,1
3999.52,1,1,1,2
3999.52,2,1,0,1
3999.52,2,1,1,2
3999.52,3,1,1,3
3999.52,2,-2,-3,2
3999.52,1,-5,-5,3
3999.52,4,-2,-1,4
3999.52,6,0,1,7
3999.52,7,2,2,8
3999.52,9,5,4,7
3999.52,8,7,5,6
3999.52,7,6,4,5
3999.52,5,6,5,3
3999.52,3,4,3,0
3999.52,2,3,1,-1
3999.53,0,3,2,0
3999.53,2,6,3,-1
3999.53,0,7,2,-4
3999.53,0,5,1,-5
3999.53,0,8,3,-4
3999.53,0,7,2,-4
3999.53,0,5,0,-4
3999.53,-1,3,1,-1
3999.53,1,4,4,1
3999.53,2,5,6,4
3999.53,3,4,6,5
3999.53,3,3,5,5
3999.53,2,2,3,4
3999.53,2,1,2,3
3999.53,1,0,1,2
3999.53,2,0,0,2
3999.53,2,1,0,2
3999.53,4,3,2,4
3999.54,5,4,2,4
3999.54,4,3,2,3
3999.54,5,4,2,3
3999.54,5,4,2,2
3999.54,3,2,1,1
3999.54,2,0,0,1
3999.54,1,-3,-4,1
3999.54,3,-2,-2,4
3999.54,6,2,0,5
3999.54,7,2,0,5
3999.54,7,4,3,6
3999.54,7,6,5,7
3999.54,7,6,5,5
3999.54,5,6,5,5
3999.54,3,3,4,4
3999.54,1,0,1,2
3999.54,0,0,0,0
3999.55,1,4,2,0
3999.55,1,7,4,-1
3999.55,0,7,5,-1
3999.55,0,7,4,-2
3999.55,0,6,4,-3
3999.55,-1,4,3,-3
3999.55,-1,3,1,-3
3999.55,-2,2,2,0
3999.55,0,2,3,2
3999.55,1,3,5,4
3999.55,2,4,6,6
3999.55,3,3,4,5
3999.55,3,1,1,2
3999.55,2,0,0,0
3999.55,3,1,-1,0
3999.55,3,2,0,1
3999.55,5,4,1,3
3999.56,7,6,5,7
3999.56,8,7,9,10
3999.56,7,4,5,6
3999.56,3,0,0,2
3999.56,1,0,0,0
3999.56,1,-1,-2,0
3999.56,0,-2,-5,0
3999.56,1,-3,-6,1
3999.56,5,0,-3,3
3999.56,8,3,0,6
3999.56,8,4,3,8
3999.56,9,6,5,9
3999.56,9,5,6,8
3999.56,7,6,5,5
3999.56,4,4,4,3
3999.56,2,3,1,0
3999.56,1,2,1,0
3999.56,1,5,3,0
3999.57,0,6,5,-1
3999.57,0,6,4,-2
3999.57,-1,4,3,-2
3999.57,-1,6,4,-2
3999.57,-1,5,3,-1
3999.57,-1,4,3,-1
3999.57,-1,4,3,-2
3999.57,-2,1,1,-1
3999.57,-1,0,0,1
3999.57,3,3,1,2
3999.57,4,5,3,2
3999.57,4,4,3,3
3999.57,5,4,4,5
3999.57,6,6,8,8
3999.57,6,4,6,6
3999.57,5,3,6,5
3999.57,2,2,5,6
3999.58,2,1,6,5
3999.58,1,0,1,2
3999.58,0,-1,-1,0
3999.58,0,-2,-5,-4
3999.58,0,-2,-7,-5
3999.58,1,0,-7,-4
3999.58,3,0,-6,0
3999.58,7,2,-2,5
3999.58,10,3,0,9
3999.58,13,4,1,9
3999.58,13,7,4,11
3999.58,13,8,5,10
3999.58,12,7,4,6
3999.58,8,7,6,6
3999.58,5,6,6,3
3999.58,2,5,6,2
3999.58,1,7,10,3
3999.58,0,8,11,2
3999.59,-2,3,5,-4
3999.59,-8,0,-1,-8
3999.59,-9,-2,-2,-8
3999.59,-5,0,-2,-6
3999.59,-4,1,1,-2
3999.59,-1,4,4,1
3999.59,2,5,5,2
3999.59,2,3,3,2
3999.59,2,3,4,3
3999.59,3,3,4,3
3999.59,3,4,4,5
3999.59,4,3,4,5
3999.59,5,3,2,4
3999.59,4,2,1,1
3999.59,2,0,0,1
3999.59,2,0,1,3
3999.59,4,3,3,5
3999.6,7,5,5,6
3999.6,6,4,2,2
3999.6,4,1,-1,0
3999.6,2,1,-1,0
3999.6,2,3,1,2
3999.6,6,4,2,3
3999.6,4,0,0,4
3999.6,4,-1,-1,5
3999.6,5,0,0,5
3999.6,6,0,0,8
3999.6,8,1,1,7
3999.6,8,2,2,6
3999.6,6,3,4,6
3999.6,6,4,3,3
3999.6,5,6,4,1
3999.6,3,5,2,0
3999.6,1,5,3,-2
3999.6,0,6,4,-2
3999.61,0,8,6,-2
3999.61,0,8,7,-1
3999.61,0,5,3,-3
3999.61,-3,3,1,-5
3999.61,-4,2,0,-4
3999.61,-2,2,1,-2
3999.61,0,3,1,0
3999.61,2,3,2,0
3999.61,3,3,3,2
3999.61,5,6,5,4
3999.61,5,6,5,4
3999.61,4,3,1,3
3999.61,4,3,0,2
3999.61,3,1,-1,0
3999.61,2,1,-1,1
3999.61,4,3,3,6
3999.61,7,4,2,4
3999.62,7,5,3,5
3999.62,6,4,4,5
3999.62,4,4,5,5
3999.62,3,1,4,4
3999.62,1,0,1,3
3999.62,0,-3,2,5
3999.62,0,-4,1,7
3999.62,0,-5,0,6
3999.62,2,-4,-2,3
3999.62,3,-2,-2,5
3999.62,8,3,3,6
3999.62,9,5,2,5
3999.62,7,6,4,4
3999.62,7,6,2,2
3999.62,5,4,1,0
3999.62,3,3,0,-2
3999.62,3,7,3,-1
3999.63,3,7,2,-2
3999.63,2,8,3,-1
3999.63,2,9,6,1
3999.63,3,11,10,1
3999.63,0,7,7,0
3999.63,-3,2,4,-2
3999.63,-4,1,2,-3
3999.63,-4,-1,0,-1
3999.63,-2,-1,-1,-2
3999.63,-1,0,0,0
3999.63,1,2,0,1
3999.63,5,4,1,2
3999.63,4,6,4,4
3999.63,5,5,5,6
3999.63,7,6,5,7
3999.63,7,5,4,5
3999.63,5,4,3,4
3999.64,5,2,2,4
3999.64,4,3,2,3
3999.64,4,2,1,3
3999.64,5,4,1,2
3999.64,4,2,0,1
3999.64,3,1,0,1
3999.64,1,-2,-2,1
3999.64,1,-2,-2,3
3999.64,4,0,0,6
3999.64,7,2,4,8
3999.64,7,3,4,8
3999.64,6,2,2,4
3999.64,3,0,1,3
3999.64,3,2,2,2
3999.64,2,3,2,1
3999.64,1,3,3,2
3999.64,3,4,3,2
3999.64,4,7,4,1
3999.65,5,9,5,0
3999.65,3,10,4,-3
3999.65,0,9,6,-3
3999.65,-1,6,4,-4
3999.65,-3,2,1,-4
3999.65,-3,2,1,-3
3999.65,-2,2,2,0
3999.65,-1,0,0,0
3999.65,0,0,0,2
3999.65,2,2,3,5
3999.65,5,4,4,5
3999.65,6,5,4,5
3999.65,6,5,4,5
3999.65,7,5,3,5
3999.65,7,6,4,4
3999.65,6,6,4,3
3999.65,5,6,6,4
3999.66,3,3,4,1
3999.66,0,0,-1,0
3999.66,0,-1,-1,-1
3999.66,0,0,0,0
3999.66,1,0,-1,0
3999.66,2,0,-1,3
3999.66,4,0,0,5
3999.66,6,0,0,7
3999.66,8,1,0,5
3999.66,5,0,0,5
3999.66,6,2,1,6
3999.66,8,3,2,6
3999.66,7,4,2,4
3999.66,6,5,4,4
3999.66,4,5,3,3
3999.66,4,5,4,2
3999.66,5,6,4,1
3999.66,2,7,4,-1
3999.67,0,5,2,-4
3999.67,-3,3,2,-3
3999.67,-1,5,3,-1
3999.67,0,6,4,-2
3999.67,0,5,3,-2
3999.67,0,4,3,-2
3999.67,-1,2,1,-1
3999.67,0,1,1,1
3999.67,1,2,2,1
3999.67,1,2,2,3
3999.67,2,3,4,4
3999.67,3,3,4,5
3999.67,6,5,6,7
3999.67,6,5,5,5
3999.67,5,4,3,4
3999.67,4,2,2,3
3999.67,3,2,1,3
3999.68,3,1,1,2
3999.68,3,3,3,3
3999.68,3,2,1,2
3999.68,2,1,0,0
3999.68,1,0,0,0
3999.68,1,0,-1,2
3999.68,1,-2,-1,3
3999.68,4,-1,0,6
3999.68,6,0,0,6
3999.68,7,0,-1,6
3999.68,8,3,0,6
3999.68,9,5,2,6
3999.68,9,7,4,5
3999.68,9,8,5,4
3999.68,6,6,2,2
3999.68,4,3,0,0
3999.68,3,5,1,0
3999.69,3,6,2,-1
3999.69,2,6,3,-1
3999.69,0,7,4,-2
3999.69,0,5,4,-2
3999.69,0,4,3,-2
3999.69,-2,3,4,-1
3999.69,-1,4,5,0
3999.69,-1,1,2,0
3999.69,-2,0,0,-1
3999.69,-3,0,3,1
3999.69,-2,0,5,4
3999.69,0,3,6,6
3999.69,4,6,8,6
3999.69,6,5,5,4
3999.69,3,2,2,1
3999.69,0,-1,-2,0
3999.69,1,0,-1,2
3999.69,5,3,1,2
3999.7,6,5,1,4
3999.7,7,5,2,5
3999.7,8,6,2,5
3999.7,7,4,1,3
3999.7,5,2,0,3
3999.7,4,0,-1,2
3999.7,5,0,0,5
3999.7,6,0,0,5
3999.7,5,0,-2,2
3999.7,2,-2,-3,2
3999.7,5,3,1,5
3999.7,9,7,4,5
3999.7,7,8,5,5
3999.7,7,8,6,7
3999.7,9,9,6,5
3999.7,9,7,1,1
3999.7,4,5,2,0
3999.71,0,4,4,0
3999.71,-2,4,7,1
3999.71,-4,-1,1,-6
3999.71,-10,-4,-2,-8
3999.71,-7,0,-1,-7
3999.71,-4,2,-1,-8
3999.71,-4,0,-3,-8
3999.71,-5,-1,-2,-4
3999.71,1,5,4,3
3999.71,5,8,6,4
3999.71,4,9,11,9
3999.71,8,15,21,17
3999.71,13,17,24,20
3999.71,12,9,12,11
3999.71,6,1,-2,-2
3999.71,-3,-8,-15,-14
3999.71,-8,-10,-16,-11
3999.71,-2,-5,-7,0
3999.72,6,2,1,9
3999.72,9,3,6,13
3999.72,10,0,2,10
3999.72,6,-7,-5,3
3999.72,2,-5,-4,2
3999.72,2,-1,0,4
3999.72,7,8,8,11
3999.72,12,16,14,12
3999.72,16,21,18,12
3999.72,13,20,17,8
3999.72,7,11,6,-5
3999.72,-7,-2,-4,-13
3999.72,-12,-3,-4,-10
3999.72,-10,-4,-4,-8
3999.72,-6,-5,-7,-8
3999.72,-5,-6,-10,-9
3999.72,-1,0,-4,-4
3999.73,4,9,7,5
3999.73,12,17,14,12
3999.73,15,19,16,13
3999.73,14,16,16,11
3999.73,8,9,12,9
3999.73,5,2,4,4
3999.73,0,-5,-4,-5
3999.73,-11,-17,-15,-10
3999.73,-13,-17,-15,-10
3999.73,-9,-15,-14,-6
3999.73,-4,-9,-5,5
3999.73,6,1,7,18
3999.73,18,14,19,26
3999.73,27,28,28,23
3999.73,24,29,28,18
3999.73,11,12,9,2
3999.73,-2,-3,-5,-11
3999.73,-11,-8,-13,-21
3999.74,-17,-10,-14,-18
3999.74,-10,0,-2,-6
3999.74,0,5,1,0
3999.74,6,9,3,2
3999.74,10,12,2,-3
3999.74,0,-1,-8,-10
3999.74,-11,-13,-9,-2
3999.74,0,-5,-3,7
3999.74,9,-1,-3,9
3999.74,14,5,1,14
3999.74,21,13,11,19
3999.74,20,14,12,15
3999.74,14,11,10,11
3999.74,7,0,1,7
3999.74,5,-3,-4,7
3999.74,13,7,2,10
3999.74,19,20,15,11
3999.75,16,22,13,-2
3999.75,-4,2,-1,-13
3999.75,-14,-6,-4,-10
3999.75,-9,2,6,-1
3999.75,3,22,24,5
3999.75,5,25,25,0
3999.75,-9,3,10,1
3999.75,-10,-13,-8,-4
3999.75,-6,-10,-12,-11
3999.75,-9,-9,-12,-16
3999.75,-19,-16,-12,-10
3999.75,-14,-20,-15,-2
3999.75,0,-7,-4,8
3999.75,9,-3,-1,11
3999.75,9,-4,-4,9
3999.75,13,3,4,17
3999.75,24,20,16,20
3999.75,26,25,12,7
3999.76,18,28,13,-4
3999.76,4,21,7,-18
3999.76,-13,4,-3,-22
3999.76,-15,0,-5,-18
3999.76,-12,-3,-9,-17
3999.76,-13,-9,-13,-14
3999.76,-12,-7,2,8
3999.76,4,2,21,32
3999.76,15,1,20,39
3999.76,27,9,22,42
3999.76,32,13,19,29
3999.76,21,9,6,5
3999.76,1,-1,2,4
3999.76,3,-2,2,14
3999.76,13,-5,-9,5
3999.76,10,-6,-16,-7
3999.76,2,-2,-9,-4
3999.77,8,14,10,9
3999.77,22,31,17,0
3999.77,11,31,17,-10
3999.77,-7,13,3,-24
3999.77,-24,-6,-12,-34
3999.77,-36,-24,-26,-34
3999.77,-35,-36,-34,-23
3999.77,-16,-25,-23,-5
3999.77,5,1,4,15
3999.77,16,12,18,25
3999.77,19,13,21,29
3999.77,17,4,12,24
3999.77,14,1,10,20
3999.77,16,14,17,16
3999.77,17,28,25,6
3999.77,2,14,13,0
3999.77,0,10,7,-5
3999.78,-7,-1,-4,-17
3999.78,-19,-7,-1,-7
3999.78,-11,-4,1,0
3999.78,-2,-3,0,2
3999.78,5,5,5,8
3999.78,13,18,14,3
3999.78,5,13,11,1
3999.78,0,3,0,-6
3999.78,-4,1,5,3
3999.78,6,13,12,10
3999.78,18,21,6,0
3999.78,9,8,-6,-10
3999.78,-5,-9,-20,-20
3999.78,-16,-21,-24,-21
3999.78,-22,-26,-20,-11
3999.78,-17,-20,-2,15
3999.78,7,-1,13,32
3999.78,26,14,22,41
3999.79,37,17,18,38
3999.79,39,13,0,13
3999.79,23,9,-10,-14
3999.79,0,9,-2,-19
3999.79,-10,7,8,0
3999.79,4,12,13,13
3999.79,14,10,2,0
3999.79,1,-2,-3,4
3999.79,6,0,-2,3
3999.79,3,-6,-5,4
3999.79,3,-7,-5,8
3999.79,5,-7,-1,12
3999.79,4,-10,-2,12
3999.79,5,-7,-3,11
3999.79,8,-2,-3,-1
3999.79,-3,-7,-7,-8
3999.79,-10,-8,-9,-9
3999.8,-5,-4,-8,-8
3999.8,0,2,-6,-11
3999.8,0,6,-1,-6
3999.8,4,17,11,0
3999.8,6,19,13,-3
3999.8,-4,9,10,-3
3999.8,-5,5,9,1
3999.8,1,11,19,20
3999.8,19,17,17,20
3999.8,22,16,9,11
3999.8,16,12,3,0
3999.8,7,10,6,1
3999.8,4,8,5,0
3999.8,-4,-4,-6,-9
3999.8,-13,-11,-6,-8
3999.8,-13,-10,-5,-9
3999.8,-12,-7,0,-3
3999.8,-5,2,8,3
3999.81,3,11,12,6
3999.81,6,14,16,11
3999.81,13,22,21,9
3999.81,10,25,21,-2
3999.81,-4,15,12,-11
3999.81,-14,4,5,-8
3999.81,-7,0,-3,-4
3999.81,1,1,-6,-5
3999.81,3,6,-1,-4
3999.81,-2,-1,-1,0
3999.81,-2,-8,-6,0
3999.81,-2,-7,-4,1
3999.81,4,7,9,6
3999.81,1,4,3,-6
3999.81,-14,-5,7,6
3999.81,-2,0,13,17
3999.81,5,-4,5,17
3999.82,13,3,10,31
3999.82,37,19,11,28
3999.82,34,11,0,23
3999.82,32,0,-19,4
3999.82,19,-6,-24,-7
3999.82,4,-6,-12,0
3999.82,0,-16,-19,-5
3999.82,-3,-15,-17,-6
3999.82,-2,-8,-12,-7
3999.82,0,4,4,9
3999.82,10,3,-2,0
3999.82,-2,-12,-14,-11
3999.82,-11,-8,-3,2
3999.82,3,3,4,5
3999.82,7,5,1,0
3999.82,4,8,2,-6
3999.82,-2,6,9,9
3999.82,14,20,18,13
3999.83,17,27,20,0
3999.83,0,24,25,-1
3999.83,-9,13,22,4
3999.83,-3,8,13,5
3999.83,0,1,4,4
3999.83,5,1,-9,-19
3999.83,-11,0,-7,-16
3999.83,-4,10,3,-6
3999.83,6,22,12,-2
3999.83,10,35,24,-8
3999.83,-8,19,18,-12
3999.83,-20,0,9,-6
3999.83,-17,-6,9,14
3999.83,4,-4,0,8
3999.83,3,-6,-7,4
3999.83,7,0,-2,4
3999.83,5,-7,-10,-1
3999.84,0,-11,-10,2
3999.84,2,-7,-8,-3
3999.84,-6,-9,4,17
3999.84,12,6,20,41
3999.84,32,6,7,24
3999.84,16,-7,-9,6
3999.84,2,-10,-6,4
3999.84,2,-1,9,23
3999.84,22,11,11,23
3999.84,25,11,1,4
3999.84,9,1,-13,-17
3999.84,-10,-7,-18,-33
3999.84,-30,-16,-17,-31
3999.84,-28,-12,-8,-15
3999.84,-11,0,3,3
3999.84,11,20,15,7
3999.84,19,40,34,14
3999.85,21,50,47,22
3999.85,20,38,37,16
3999.85,9,19,19,6
3999.85,4,12,8,0
3999.85,0,0,-6,-11
3999.85,-11,-14,-23,-26
3999.85,-23,-26,-31,-24
3999.85,-14,-15,-19,-15
3999.85,-2,0,-7,-8
3999.85,3,2,-13,-22
3999.85,-14,-9,-17,-25
3999.85,-20,-12,-6,-4
3999.85,0,9,18,26
3999.85,31,35,38,36
3999.85,35,38,38,28
3999.85,18,19,21,15
3999.85,2,-4,1,7
3999.85,2,-10,-12,-3
3999.86,-1,-9,-13,-6
3999.86,0,-2,-4,-2
3999.86,0,0,2,1
3999.86,-4,-5,1,0
3999.86,-10,-9,5,10
3999.86,0,0,12,19
3999.86,13,12,20,26
3999.86,22,17,24,33
3999.86,24,4,4,17
3999.86,11,-9,-14,1
3999.86,3,-9,-10,4
3999.86,11,0,0,19
3999.86,27,8,-2,10
3999.86,15,-7,-23,-19
3999.86,-14,-22,-27,-21
3999.86,-15,-17,-18,-17
3999.86,-16,-17,-16,-16
3999.87,-9,1,0,-4
3999.87,6,27,28,12
3999.87,14,31,29,13
3999.87,11,21,15,3
3999.87,3,8,3,-3
3999.87,0,3,-1,-5
3999.87,-1,0,-8,-16
3999.87,-11,-2,-4,-9
3999.87,-8,-3,-1,1
3999.87,1,-3,-2,7
3999.87,12,5,6,19
3999.87,24,19,19,23
3999.87,23,21,20,18
3999.87,17,19,16,11
3999.87,7,7,2,-4
3999.87,-10,-12,-13,-13
3999.87,-15,-16,-16,-17
3999.88,-17,-14,-12,-12
3999.88,-10,-3,0,1
3999.88,2,7,9,7
3999.88,9,13,14,17
3999.88,18,16,17,20
3999.88,13,2,7,23
3999.88,17,-3,-3,15
3999.88,12,-13,-15,5
3999.88,4,-23,-28,0
3999.88,10,-8,-16,4
3999.88,23,18,7,11
3999.88,20,17,1,-11
3999.88,-7,2,-4,-21
3999.88,-17,2,3,-12
3999.88,-10,7,9,-4
3999.88,-3,14,16,2
3999.88,6,26,25,7
3999.88,5,23,20,-4
3999.89,-5,19,18,-12
3999.89,-12,20,25,-2
3999.89,-6,17,17,-8
3999.89,-12,5,1,-22
3999.89,-21,2,3,-12
3999.89,-7,12,15,5
3999.89,6,11,5,0
3999.89,-3,-7,-6,4
3999.89,6,-14,-18,3
3999.89,4,-22,-31,-11
3999.89,-8,-22,-11,18
3999.89,17,-1,4,27
3999.89,25,5,2,14
3999.89,18,10,10,20
3999.89,28,24,16,15
3999.89,21,22,12,-3
3999.89,-3,13,13,-13
3999.9,-26,-11,0,-10
3999.9,-24,-19,-6,-2
3999.9,-7,-9,-1,11
3999.9,12,4,8,21
3999.9,21,6,8,24
3999.9,18,-6,-10,7
3999.9,6,-16,-21,-4
3999.9,-1,-17,-18,-1
3999.9,0,-9,0,23
3999.9,29,22,19,23
3999.9,26,24,14,6
3999.9,5,7,-1,-11
3999.9,-9,-3,-5,-13
3999.9,-12,-4,-3,-7
3999.9,-8,-4,-4,-14
3999.9,-12,1,4,-7
3999.9,-2,16,21,10
3999.9,12,29,29,17
3999.91,16,25,21,10
3999.91,7,10,3,-9
3999.91,-7,1,-3,-15
3999.91,-10,3,3,-7
3999.91,-5,3,1,-6
3999.91,-5,-4,-9,-14
3999.91,-11,-11,-12,-6
3999.91,0,-2,-4,4
3999.91,11,8,5,11
3999.91,16,12,7,10
3999.91,14,11,7,6
3999.91,7,6,2,0
3999.91,0,0,0,-1
3999.91,0,1,1,2
3999.91,1,2,4,7
3999.91,6,5,8,9
3999.91,5,0,0,4
3999.92,4,0,0,5
3999.92,6,4,4,7
3999.92,10,7,3,3
3999.92,2,-2,-6,-7
3999.92,-9,-13,-12,-7
3999.92,-7,-10,-6,3
3999.92,5,0,4,14
3999.92,14,5,4,11
3999.92,10,0,0,8
3999.92,10,4,2,10
3999.92,13,7,5,10
3999.92,13,11,8,9
3999.92,9,7,4,1
3999.92,1,2,0,-2
3999.92,-2,1,1,0
3999.92,2,7,5,1
3999.92,4,10,8,2
3999.93,4,9,6,-3
3999.93,-1,6,3,-6
3999.93,-4,6,4,-5
3999.93,-3,5,4,-2
3999.93,0,6,3,-3
3999.93,-1,5,2,-3
3999.93,-3,0,0,-3
3999.93,-3,0,1,0
3999.93,0,0,0,1
3999.93,1,0,0,1
3999.93,3,2,0,0
3999.93,2,3,3,1
3999.93,3,5,4,1
3999.93,1,4,4,0
3999.93,1,5,5,3
3999.93,4,7,8,10
3999.93,10,8,7,9
3999.93,7,0,-1,6
3999.94,5,-3,-8,-1
3999.94,1,-2,-4,1
3999.94,4,2,2,6
3999.94,7,2,3,10
3999.94,10,0,1,14
3999.94,15,1,-1,10
3999.94,10,-2,-5,2
3999.94,1,-6,-5,3
3999.94,3,-3,-1,8
3999.94,9,2,2,10
3999.94,12,5,5,10
3999.94,11,6,3,5
3999.94,5,3,1,0
3999.94,2,1,0,0
3999.94,2,5,4,0
3999.94,2,9,7,0
3999.94,2,10,6,-4
3999.95,-3,8,4,-7
3999.95,-5,6,5,-5
3999.95,-3,8,6,-4
3999.95,-2,6,5,-4
3999.95,-2,8,6,-4
3999.95,-4,4,4,-3
3999.95,-5,0,0,0
3999.95,0,0,2,2
3999.95,2,1,0,1
3999.95,1,0,-1,0
3999.95,1,0,0,1
3999.95,4,3,3,6
3999.95,8,4,3,8
3999.95,9,4,1,7
3999.95,10,6,3,6
3999.95,9,6,3,4
3999.95,7,5,4,5
3999.95,6,4,3,5
3999.96,6,3,2,4
3999.96,4,0,-1,0
3999.96,0,-2,-3,-2
3999.96,-3,-6,-3,1
3999.96,-1,-7,-4,4
3999.96,2,-6,-2,9
3999.96,9,2,4,12
3999.96,12,5,4,11
3999.96,11,5,3,6
3999.96,6,1,0,4
3999.96,7,4,2,3
3999.96,6,7,4,2
3999.96,4,7,4,0
3999.96,3,7,6,2
3999.96,5,11,9,0
3999.96,2,8,5,-6
3999.96,-3,6,4,-5
3999.97,-2,8,7,-3
3999.97,-1,8,6,-4
3999.97,-3,6,6,-4
3999.97,-4,4,4,-6
3999.97,-6,1,2,-6
3999.97,-7,0,1,-1
3999.97,-1,0,2,1
3999.97,2,2,2,3
3999.97,2,1,1,2
3999.97,2,-1,-2,0
3999.97,0,-1,-2,0
3999.97,3,3,3,6
3999.97,9,8,9,10
3999.97,11,8,7,9
3999.97,9,6,6,8
3999.97,8,6,5,8
3999.97,7,3,3,6
3999.97,4,0,0,4
3999.98,3,2,2,4
3999.98,4,3,2,3
3999.98,5,4,0,0
3999.98,2,-1,-6,-3
3999.98,-1,-8,-11,-4
3999.98,0,-7,-11,0
3999.98,5,-3,-5,5
3999.98,11,1,-1,8
3999.98,14,6,2,11
3999.98,14,7,5,9
3999.98,11,8,10,11
3999.98,8,6,9,9
3999.98,6,5,7,2
3999.98,0,5,7,0
3999.98,-3,3,4,-4
3999.98,-8,-1,-3,-13
3999.98,-10,2,1,-12
3999.99,-6,13,16,2
3999.99,3,19,21,7
3999.99,4,13,15,5
3999.99,0,3,5,-1
3999.99,-4,1,3,-3
3999.99,-8,-4,-1,-6
3999.99,-8,-5,-6,-10
3999.99,-9,-4,-7,-11
3999.99,-6,-4,-11,-12
3999.99,0,0,-14,-14
3999.99,3,5,-14,-12
3999.99,8,10,-7,-6
3999.99,15,18,5,5
3999.99,21,27,20,18
3999.99,23,26,23,18
3999.99,15,16,21,18
3999.99,8,7,16,18
4000,9,5,12,12
4000,2,0,7,6
4000,-2,-5,1,2
4000,-7,-14,-10,-3
4000,-13,-25,-22,-10
4000,-10,-19,-14,0
4000,2,-1,4,15
4000,16,7,6,15
4000,16,7,4,11
4000,13,9,9,11
4000,8,3,0,1
4000,2,3,1,1
4000,2,6,7,4
4000,3,11,16,11
4000,5,13,22,15
4000,2,4,7,0
4000,-5,0,0,-9
4000,-11,-2,-2,-12
4000.01,-13,-8,-14,-20
4000.01,-13,-6,-14,-18
4000.01,-6,1,-6,-11
4000.01,0,4,-3,-4
4000.01,6,12,7,8
4000.01,13,14,15,16
4000.01,18,16,16,17
4000.01,17,13,14,15
4000.01,10,0,-6,-1
4000.01,2,-6,-11,-3
4000.01,3,-1,-6,-1
4000.01,2,-3,-8,-1
4000.01,0,-12,-18,-5
4000.01,2,-9,-15,-1
4000.01,7,1,-2,3
4000.01,11,14,15,15
4000.01,15,23,33,28
4000.02,17,31,59,45
4000.02,13,20,44,28
4000.02,-5,-7,4,-7
4000.02,-29,-36,-32,-31
4000.02,-38,-49,-53,-41
4000.02,-28,-34,-38,-21
4000.02,-3,-2,0,14
4000.02,19,5,-1,15
4000.02,27,12,1,17
4000.02,29,16,6,18
4000.02,27,15,5,16
4000.02,26,22,16,20
4000.02,26,32,37,30
4000.02,21,19,17,11
4000.02,7,4,-2,-7
4000.02,-6,-3,-9,-16
4000.02,-11,-5,-9,-14
4000.02,-8,3,8,2
4000.03,1,9,14,7
4000.03,0,4,5,-2
4000.03,-7,-10,-16,-20
4000.03,-15,-18,-30,-29
4000.03,-15,-13,-21,-17
4000.03,-2,2,-3,1
4000.03,12,14,11,13
4000.03,17,13,6,7
4000.03,13,11,4,7
4000.03,12,11,4,6
4000.03,13,13,7,7
4000.03,14,16,14,13
4000.03,11,14,19,15
4000.03,7,9,18,13
4000.03,0,5,19,12
4000.03,-4,-6,3,-1
4000.03,-14,-16,-14,-14
4000.04,-14,-14,-13,-12
4000.04,-11,-10,-10,-7
4000.04,-3,-7,-16,-11
4000.04,0,-2,-12,-4
4000.04,11,5,-7,5
4000.04,23,17,4,12
4000.04,23,25,26,26
4000.04,18,11,17,19
4000.04,8,2,9,13
4000.04,6,1,11,16
4000.04,8,4,10,11
4000.04,0,-4,2,1
4000.04,-7,-10,-5,-4
4000.04,-8,-9,-10,-8
4000.04,-4,3,5,1
4000.04,0,2,0,-8
4000.04,-9,-5,-11,-17
4000.05,-12,2,8,0
4000.05,2,21,35,22
4000.05,7,16,29,17
4000.05,1,9,21,13
4000.05,-2,-3,0,-6
4000.05,-12,-17,-25,-22
4000.05,-12,-19,-35,-25
4000.05,-2,-6,-26,-16
4000.05,10,14,4,9
4000.05,22,21,13,15
4000.05,16,3,-8,0
4000.05,9,-4,-18,-4
4000.05,16,15,6,13
4000.05,29,39,41,36
4000.05,27,25,27,21
4000.05,12,11,16,12
4000.05,2,-3,-3,-4
4000.05,-9,-15,-21,-21
4000.06,-19,-23,-30,-25
4000.06,-15,-18,-24,-13
4000.06,0,1,-1,7
4000.06,16,18,22,26
4000.06,21,18,23,25
4000.06,16,7,6,7
4000.06,5,5,4,4
4000.06,2,0,0,1
4000.06,-1,-1,0,0
4000.06,-5,-5,-2,-1
4000.06,-6,-7,-1,-1
4000.06,-3,1,7,5
4000.06,4,11,14,7
4000.06,7,16,17,5
4000.06,3,15,17,1
4000.06,-4,4,6,-6
4000.06,-13,-6,-5,-10
4000.07,-9,-6,-12,-14
4000.07,-3,0,-9,-13
4000.07,-3,0,-9,-12
4000.07,0,6,-3,-8
4000.07,5,13,5,0
4000.07,11,23,19,13
4000.07,18,25,22,12
4000.07,10,11,7,1
4000.07,0,1,1,0
4000.07,0,5,11,9
4000.07,5,7,12,9
4000.07,1,1,8,7
4000.07,-2,-5,1,4
4000.07,-2,-4,2,4
4000.07,-1,-3,2,4
4000.07,-2,-8,-6,0
4000.07,2,-4,-8,-1
4000.07,7,1,-10,-6
4000.08,5,3,-9,-7
4000.08,6,6,0,1
4000.08,10,11,9,11
4000.08,10,8,11,12
4000.08,7,3,7,9
4000.08,1,-6,-2,2
4000.08,-1,-8,-3,4
4000.08,3,-1,3,9
4000.08,6,4,8,10
4000.08,4,4,8,8
4000.08,3,2,3,3
4000.08,3,5,8,6
4000.08,3,9,17,13
4000.08,2,4,12,6
4000.08,-1,6,15,6
4000.08,-3,0,6,-3
4000.08,-11,-6,-6,-14
4000.09,-12,-3,-6,-14
4000.09,-8,1,-2,-8
4000.09,0,6,0,-4
4000.09,5,10,0,0
4000.09,11,11,-5,-5
4000.09,12,10,-9,-8
4000.09,10,13,2,1
4000.09,10,10,5,6
4000.09,10,13,14,14
4000.09,11,8,9,8
4000.09,1,-4,-5,-4
4000.09,-7,-12,-14,-10
4000.09,-6,-6,-7,-4
4000.09,1,3,0,0
4000.09,5,5,-1,-2
4000.09,6,9,2,2
4000.09,9,12,7,8
4000.09,14,17,16,19
4000.1,18,16,18,21
4000.1,18,14,15,16
4000.1,10,0,-4,-1
4000.1,-5,-18,-25,-16
4000.1,-11,-22,-30,-17
4000.1,-4,-7,-11,-2
4000.1,6,2,0,8
4000.1,14,4,-4,2
4000.1,11,8,0,3
4000.1,12,12,6,5
4000.1,12,17,18,15
4000.1,12,20,30,24
4000.1,12,11,16,11
4000.1,3,5,9,1
4000.1,-6,-3,3,-3
4000.1,-14,-5,8,1
4000.1,-14,-9,7,2
4000.11,-10,-8,-1,-7
4000.11,-10,-2,-2,-10
4000.11,-6,5,3,-8
4000.11,-6,5,7,-3
4000.11,-6,4,14,6
4000.11,-2,4,14,10
4000.11,2,5,12,8
4000.11,0,1,9,7
4000.11,-1,-3,0,0
4000.11,-5,-12,-12,-8
4000.11,-5,-14,-24,-14
4000.11,1,-10,-34,-20
4000.11,11,9,-9,0
4000.11,23,24,16,19
4000.11,27,27,26,27
4000.11,25,25,26,24
4000.11,17,12,12,9
4000.11,4,-4,-14,-12
4000.12,-5,-12,-24,-19
4000.12,-2,0,-6,-1
4000.12,9,7,1,6
4000.12,14,18,19,20
4000.12,17,16,22,20
4000.12,7,-3,0,1
4000.12,-7,-16,-12,-5
4000.12,-6,-9,-2,2
4000.12,0,1,9,11
4000.12,6,6,11,9
4000.12,1,-3,-7,-7
4000.12,-6,-9,-16,-15
4000.12,-5,-2,-11,-10
4000.12,2,6,-6,-8
4000.12,6,13,2,-1
4000.12,10,21,18,9
4000.12,10,17,19,11
4000.13,8,14,16,10
4000.13,7,12,11,3
4000.13,3,8,7,0
4000.13,-2,1,1,-5
4000.13,-8,-5,-4,-6
4000.13,-7,-3,0,-1
4000.13,-3,0,5,4
4000.13,1,2,6,4
4000.13,0,0,0,0
4000.13,-2,-4,-3,-3
4000.13,-3,-4,-4,-2
4000.13,0,0,0,1
4000.13,3,3,1,2
4000.13,6,5,0,1
4000.13,8,9,6,6
4000.13,9,10,10,10
4000.13,9,8,8,9
4000.14,7,5,5,7
4000.14,5,2,1,6
4000.14,5,1,1,4
4000.14,1,-4,-2,2
4000.14,1,-2,0,7
4000.14,5,-2,0,8
4000.14,7,-1,-2,6
4000.14,8,0,-1,6
4000.14,8,0,-4,2
4000.14,7,1,-6,-1
4000.14,5,3,-3,-4
4000.14,3,5,-2,-3
4000.14,3,9,4,1
4000.14,5,11,9,2
4000.14,4,11,9,1
4000.14,1,13,18,6
4000.14,0,9,14,3
4000.15,-2,3,4,-4
4000.15,-4,2,0,-5
4000.15,-5,-2,-4,-8
4000.15,-6,-2,-3,-6
4000.15,-4,1,5,4
4000.15,3,6,10,9
4000.15,5,3,3,2
4000.15,1,0,-1,-1
4000.15,0,0,-2,-1
4000.15,2,6,8,7
4000.15,8,10,10,7
4000.15,5,4,2,1
4000.15,2,2,3,5
4000.15,4,7,12,12
4000.15,6,6,11,9
4000.15,1,0,0,0
4000.15,-1,-4,-5,-4
4000.15,-4,-6,-6,-5
4000.16,-3,-6,-7,-3
4000.16,0,0,0,5
4000.16,8,7,5,8
4000.16,11,7,2,6
4000.16,11,5,-4,0
4000.16,6,-6,-17,-8
4000.16,4,-4,-14,-2
4000.16,10,2,-9,3
4000.16,17,9,0,11
4000.16,23,18,12,17
4000.16,22,17,10,11
4000.16,14,14,10,6
4000.16,7,11,13,6
4000.16,1,7,10,0
4000.16,-6,0,5,-3
4000.16,-9,4,17,5
4000.16,-7,6,23,8
4000.17,-12,-6,6,-3
4000.17,-17,-13,-7,-12
4000.17,-17,-10,-7,-11
4000.17,-11,-4,-1,-5
4000.17,-5,-3,-1,-3
4000.17,-2,0,0,-1
4000.17,2,5,1,1
4000.17,8,9,3,2
4000.17,10,10,2,2
4000.17,7,7,4,5
4000.17,8,8,7,8
4000.17,11,12,15,15
4000.17,11,11,14,12
4000.17,6,2,0,0
4000.17,-1,-4,-4,-3
4000.17,-2,-5,-8,-4
4000.17,0,-6,-16,-8
4000.17,3,0,-11,-3
4000.18,10,8,-1,2
4000.18,13,12,3,7
4000.18,15,15,12,12
4000.18,14,13,13,13
4000.18,10,4,4,8
4000.18,7,2,1,5
4000.18,4,0,2,6
4000.18,2,3,14,14
4000.18,1,0,15,14
4000.18,-2,-7,0,0
4000.18,-10,-15,-12,-10
4000.18,-13,-17,-18,-13
4000.18,-8,-13,-18,-12
4000.18,0,1,-10,-9
4000.18,7,15,4,0
4000.18,17,31,25,14
4000.18,18,30,25,12
4000.19,11,18,13,2
4000.19,2,9,4,-3
4000.19,-1,5,3,-4
4000.19,-1,5,4,-3
4000.19,-4,-2,-1,-4
4000.19,-5,-3,-2,-2
4000.19,-2,0,3,2
4000.19,1,4,9,6
4000.19,1,0,0,0
4000.19,-2,-3,-1,0
4000.19,0,2,8,7
4000.19,1,1,6,7
4000.19,1,-3,-4,-1
4000.19,0,-5,-10,-4
4000.19,5,2,-3,2
4000.19,11,16,19,20
4000.19,15,9,7,9
4000.2,8,2,-6,-1
4000.2,7,3,-6,-2
4000.2,6,5,-1,0
4000.2,4,3,1,4
4000.2,3,3,8,12
4000.2,6,6,15,16
4000.2,6,1,9,11
4000.2,2,-4,0,3
4000.2,-2,-7,0,2
4000.2,-3,-9,-6,0
4000.2,0,-2,-4,-1
4000.2,4,4,0,0
4000.2,5,6,0,-1
4000.2,3,6,1,-2
4000.2,2,7,3,-2
4000.2,3,11,7,1
4000.2,5,13,10,2
4000.2,4,11,8,0
4000.21,1,9,6,-2
4000.21,-1,6,7,0
4000.21,-1,7,6,0
4000.21,0,4,2,-2
4000.21,-2,-2,-6,-7
4000.21,-4,-4,-8,-6
4000.21,-2,-3,-6,-2
4000.21,2,0,0,6
4000.21,11,10,10,14
4000.21,15,11,10,12
4000.21,12,9,8,8
4000.21,5,3,2,2
4000.21,0,-1,-1,1
4000.21,1,0,-1,1
4000.21,2,2,1,0
4000.21,2,1,0,0
4000.21,1,0,1,2
4000.22,4,3,2,5
4000.22,8,7,5,7
4000.22,8,6,5,6
4000.22,4,1,1,3
4000.22,2,-3,-3,2
4000.22,2,-2,-1,3
4000.22,4,0,0,5
4000.22,6,2,2,5
4000.22,5,3,4,7
4000.22,4,3,5,6
4000.22,3,1,1,1
4000.22,0,0,-1,-2
4000.22,-1,-1,-4,-3
4000.22,0,0,-4,-4
4000.22,3,5,-3,-6
4000.22,6,12,1,-5
4000.22,5,15,9,2
4000.22,7,18,18,9
4000.23,8,16,15,4
4000.23,1,8,9,0
4000.23,-2,3,4,-1
4000.23,-4,0,2,0
4000.23,-4,-3,-1,-1
4000.23,-2,-1,0,1
4000.23,0,0,0,1
4000.23,1,1,0,2
4000.23,2,3,5,5
4000.23,4,3,5,6
4000.23,3,1,0,1
4000.23,4,3,2,3
4000.23,4,1,0,0
4000.23,1,-2,-5,-2
4000.23,1,0,-3,0
4000.23,5,3,-3,0
4000.23,9,7,-2,1
4000.24,9,7,2,4
4000.24,9,8,7,9
4000.24,10,10,15,16
4000.24,7,4,12,16
4000.24,7,0,2,6
4000.24,1,-5,-4,0
4000.24,-2,-9,-7,-1
4000.24,0,-6,-7,0
4000.24,4,3,2,5
4000.24,8,9,9,9
4000.24,7,6,8,6
4000.24,1,2,2,0
4000.24,-3,-3,-1,-3
4000.24,-2,1,3,-1
4000.24,0,5,5,0
4000.24,1,9,7,-1
4000.24,1,10,8,0
4000.24,0,10,8,-1
4000.25,0,8,7,-1
4000.25,-1,7,7,0
4000.25,1,8,9,1
4000.25,0,0,0,-1
4000.25,-3,-8,-10,-6
4000.25,-2,-9,-14,-6
4000.25,3,0,-5,0
4000.25,9,7,3,6
4000.25,12,11,8,8
4000.25,13,14,14,13
4000.25,10,12,19,15
4000.25,5,5,11,10
4000.25,0,-1,3,3
4000.25,-3,-5,-4,-2
4000.25,-2,-5,-10,-8
4000.25,-3,-6,-14,-11
4000.25,0,-1,-15,-10
4000.26,7,10,0,2
4000.26,14,18,17,16
4000.26,13,12,16,17
4000.26,7,-1,2,9
4000.26,4,-5,-7,0
4000.26,1,-5,-8,-1
4000.26,2,-4,-7,0
4000.26,6,2,0,5
4000.26,11,8,4,8
4000.26,13,12,7,7
4000.26,10,10,9,7
4000.26,6,7,8,5
4000.26,2,3,3,0
4000.26,-1,2,2,-2
4000.26,-2,2,0,-5
4000.26,-3,1,-3,-9
4000.26,-6,-1,-4,-8
4000.27,-2,5,4,-1
4000.27,2,12,13,5
4000.27,4,12,13,5
4000.27,0,6,9,1
4000.27,-4,0,6,3
4000.27,-3,0,5,2
4000.27,-2,-2,0,0
4000.27,-1,0,-2,-1
4000.27,2,5,4,3
4000.27,4,5,3,3
4000.27,4,3,2,2
4000.27,5,5,2,2
4000.27,5,4,2,2
4000.27,5,4,1,1
4000.27,3,2,1,2
4000.27,5,5,2,3
4000.27,5,5,5,7
4000.27,7,6,8,9
4000.28,5,2,2,4
4000.28,3,0,0,2
4000.28,0,-6,-7,-1
4000.28,-2,-8,-8,0
4000.28,2,-1,-1,4
4000.28,3,-1,-1,2
4000.28,1,-1,0,4
4000.28,5,4,8,11
4000.28,9,12,18,17
4000.28,8,4,5,5
4000.28,3,1,0,1
4000.28,3,2,0,0
4000.28,4,2,-4,-5
4000.28,3,7,2,-1
4000.28,4,8,2,-2
4000.28,4,12,8,2
4000.28,5,15,17,7
4000.29,2,5,1,-5
4000.29,-4,-1,-6,-13
4000.29,-8,-1,-4,-9
4000.29,-5,2,0,-1
4000.29,0,4,5,4
4000.29,4,6,9,8
4000.29,5,7,10,9
4000.29,4,2,4,3
4000.29,0,0,0,2
4000.29,0,-1,-1,0
4000.29,1,0,-3,0
4000.29,5,2,-2,0
4000.29,7,5,0,2
4000.29,7,6,2,3
4000.29,9,9,3,4
4000.29,9,9,6,6
4000.29,8,8,7,5
4000.29,4,5,5,3
4000.3,1,0,0,0
4000.3,0,-5,-8,-3
4000.3,0,-7,-11,-2
4000.3,2,-3,-4,3
4000.3,7,0,0,7
4000.3,9,2,2,10
4000.3,13,9,9,14
4000.3,13,11,14,14
4000.3,9,7,11,10
4000.3,4,3,9,7
4000.3,0,0,6,3
4000.3,-4,-3,0,0
4000.3,-6,-4,-2,-6
4000.3,-7,-2,0,-4
4000.3,-2,1,-2,-8
4000.3,-1,3,-4,-9
4000.3,0,6,-3,-8
4000.31,1,7,0,-6
4000.31,1,10,3,-2
4000.31,5,13,11,5
4000.31,6,13,15,8
4000.31,6,10,12,7
4000.31,3,5,8,3
4000.31,0,1,5,3
4000.31,-1,-3,-2,0
4000.31,-1,-3,-4,0
4000.31,2,-2,-6,-1
4000.31,4,0,-5,0
4000.31,6,4,2,4
4000.31,8,5,4,7
4000.31,7,4,5,9
4000.31,7,4,8,11
4000.31,8,3,3,5
4000.31,5,3,0,-1
4000.31,3,6,3,0
4000.32,2,4,2,0
4000.32,1,2,3,4
4000.32,2,0,4,8
4000.32,2,-2,3,8
4000.32,2,-4,0,6
4000.32,2,-5,-2,6
4000.32,4,-1,0,6
4000.32,6,3,3,4
4000.32,4,2,0,0
4000.32,3,1,-2,-1
4000.32,3,4,0,0
4000.32,3,3,-1,-2
4000.32,6,8,0,-2
4000.32,6,11,5,-1
4000.32,5,12,7,0
4000.32,5,11,7,0
4000.32,3,10,5,-2
4000.33,2,9,6,0
4000.33,0,7,9,2
4000.33,0,3,5,0
4000.33,-4,-2,2,0
4000.33,-4,-4,-2,-2
4000.33,-2,-2,-2,-2
4000.33,0,1,1,1
4000.33,3,3,4,4
4000.33,5,4,5,6
4000.33,7,5,5,7
4000.33,7,6,6,6
4000.33,5,4,2,2
4000.33,3,3,2,2
4000.33,2,1,1,3
4000.33,3,1,1,3
4000.33,3,0,-1,0
4000.33,2,-1,-3,0
4000.33,1,0,0,1
4000.34,3,2,1,3
4000.34,5,3,2,6
4000.34,7,3,2,6
4000.34,7,3,1,6
4000.34,7,4,4,7
4000.34,8,5,5,8
4000.34,8,4,3,5
4000.34,4,1,2,3
4000.34,1,0,0,0
4000.34,0,-1,-4,-1
4000.34,2,1,-2,-2
4000.34,3,5,2,0
4000.34,4,9,8,3
4000.34,3,10,11,3
4000.34,2,9,11,4
4000.34,0,9,15,6
4000.34,-1,3,4,-2
4000.35,-7,-2,-3,-8
4000.35,-7,-1,-1,-6
4000.35,-3,-1,-7,-8
4000.35,-1,0,-7,-6
4000.35,2,4,-1,0
4000.35,7,7,4,5
4000.35,8,7,5,7
4000.35,9,7,5,8
4000.35,9,6,2,4
4000.35,7,5,1,3
4000.35,6,5,2,1
4000.35,2,4,5,4
4000.35,1,4,9,7
4000.35,0,1,6,4
4000.35,0,-1,2,2
4000.35,-2,-2,0,0
4000.35,1,0,-2,0
4000.36,2,-1,-6,-3
4000.36,4,3,-4,-1
4000.36,7,6,2,7
4000.36,11,7,7,12
4000.36,10,4,6,11
4000.36,7,1,3,8
4000.36,5,0,1,5
4000.36,4,0,-1,1
4000.36,2,0,-2,0
4000.36,3,2,0,1
4000.36,4,3,1,0
4000.36,4,5,2,1
4000.36,4,6,3,0
4000.36,3,8,5,0
4000.36,2,9,9,2
4000.36,2,10,10,1
4000.36,0,6,6,-2
4000.36,-2,2,0,-6
4000.37,-5,0,0,-7
4000.37,-5,1,0,-6
4000.37,-5,0,0,-2
4000.37,0,2,3,1
4000.37,4,6,6,6
4000.37,6,6,7,5
4000.37,5,6,5,4
4000.37,5,5,4,3
4000.37,3,1,0,3
4000.37,2,0,1,4
4000.37,3,0,0,3
4000.37,3,0,0,3
4000.37,4,2,1,5
4000.37,5,2,1,4
4000.37,6,0,-3,0
4000.37,6,2,-5,-2
4000.37,6,7,1,2
4000.38,8,10,7,6
4000.38,8,6,5,7
4000.38,7,3,4,7
4000.38,5,0,0,5
4000.38,4,-1,0,3
4000.38,2,-2,0,6
4000.38,3,0,2,7
4000.38,4,0,2,6
4000.38,3,2,8,9
4000.38,1,-1,0,0
4000.38,-2,-4,-3,-3
4000.38,-1,1,1,0
4000.38,3,10,9,3
4000.38,4,9,5,-2
4000.38,0,6,0,-5
4000.38,0,6,0,-7
4000.38,1,8,0,-6
4000.39,1,10,8,3
4000.39,5,10,8,3
4000.39,5,8,5,1
4000.39,2,4,2,0
4000.39,0,1,1,0
4000.39,-1,-1,-3,-3
4000.39,-1,0,-1,0
4000.39,3,5,3,4
4000.39,8,9,7,7
4000.39,9,11,10,7
4000.39,5,6,7,5
4000.39,1,1,3,4
4000.39,0,-1,-1,0
4000.39,-1,-4,-4,-2
4000.39,-2,-4,-3,1
4000.39,1,-1,-1,3
4000.39,3,1,4,7
4000.39,6,4,7,9
4000.4,6,2,0,3
4000.4,3,-2,-3,2
4000.4,3,-1,-1,5
4000.4,5,2,3,10
4000.4,10,5,6,10
4000.4,10,5,4,7
4000.4,9,4,0,0
4000.4,3,-2,-10,-8
4000.4,1,0,-7,-4
4000.4,6,8,2,1
4000.4,8,11,6,4
4000.4,8,11,9,5
4000.4,7,13,12,5
4000.4,2,8,11,3
4000.4,-1,3,5,-1
4000.4,-3,1,1,-4
4000.4,-4,1,0,-5
4000.41,-5,0,-2,-6
4000.41,-5,0,-1,-4
4000.41,-2,3,2,0
4000.41,0,3,3,2
4000.41,1,2,5,5
4000.41,3,1,3,4
4000.41,3,1,3,5
4000.41,3,2,4,6
4000.41,5,3,4,5
4000.41,6,5,3,4
4000.41,6,3,1,2
4000.41,4,2,-1,-1
4000.41,3,3,-1,-1
4000.41,4,6,3,3
4000.41,7,8,5,5
4000.41,6,5,3,3
4000.41,5,4,0,1
4000.41,2,1,0,0
4000.42,1,0,0,0
4000.42,0,-2,-1,2
4000.42,4,0,1,7
4000.42,7,2,2,7
4000.42,5,0,0,5
4000.42,5,1,1,6
4000.42,7,4,5,8
4000.42,7,4,5,6
4000.42,4,2,3,3
4000.42,1,0,0,0
4000.42,0,0,-1,0
4000.42,1,4,3,1
4000.42,5,9,6,0
4000.42,3,9,7,0
4000.42,1,9,5,-1
4000.42,0,6,4,-2
4000.42,-1,3,1,-4
4000.43,-2,2,0,-4
4000.43,-2,2,0,-1
4000.43,0,2,1,1
4000.43,1,2,2,3
4000.43,2,2,1,1
4000.43,2,3,4,3
4000.43,3,4,4,3
4000.43,4,7,5,3
4000.43,4,5,4,2
4000.43,4,6,3,2
4000.43,3,3,1,0
4000.43,2,1,0,2
4000.43,3,1,0,3
4000.43,5,3,2,3
4000.43,5,5,5,6
4000.43,6,7,10,9
4000.43,5,5,9,8
4000.44,2,2,7,7
4000.44,0,-1,7,7
4000.44,-4,-7,3,7
4000.44,-3,-10,0,5
4000.44,-1,-10,-6,0
4000.44,-1,-11,-15,-7
4000.44,-1,-6,-14,-6
4000.44,4,0,-10,-4
4000.44,11,10,0,3
4000.44,17,17,5,6
4000.44,18,18,7,6
4000.44,16,16,7,6
4000.44,13,13,5,3
4000.44,9,10,4,1
4000.44,5,10,6,0
4000.44,2,8,7,0
4000.44,0,8,7,0
4000.44,-2,6,10,0
4000.45,-6,0,5,-2
4000.45,-7,0,0,-5
4000.45,-7,-2,-1,-4
4000.45,-5,-1,-1,-3
4000.45,-3,-1,-1,-2
4000.45,-1,-1,0,0
4000.45,1,0,0,3
4000.45,7,8,10,11
4000.45,10,11,14,11
4000.45,7,4,5,4
4000.45,0,-1,0,1
4000.45,0,0,0,2
4000.45,3,2,2,3
4000.45,2,0,-2,-1
4000.45,0,-1,-4,-1
4000.45,2,0,0,2
4000.45,6,5,3,5
4000.46,8,5,2,5
4000.46,7,0,0,6
4000.46,7,0,0,7
4000.46,9,4,4,9
4000.46,8,2,2,7
4000.46,6,1,1,6
4000.46,5,2,2,6
4000.46,4,1,0,3
4000.46,3,1,1,2
4000.46,3,2,2,2
4000.46,2,1,0,2
4000.46,3,4,3,2
4000.46,5,9,7,2
4000.46,4,10,8,0
4000.46,1,9,7,-2
4000.46,-3,4,3,-5
4000.46,-5,2,1,-6
4000.46,-4,4,3,-3
4000.47,-5,1,3,-1
4000.47,-2,3,5,0
4000.47,0,1,0,-1
4000.47,0,0,-2,-1
4000.47,2,3,-2,-2
4000.47,4,4,-1,0
4000.47,5,6,4,3
4000.47,7,7,5,6
4000.47,8,7,4,4
4000.47,7,5,1,3
4000.47,7,5,4,6
4000.47,8,8,8,8
4000.47,8,7,7,7
4000.47,6,4,6,6
4000.47,4,2,3,3
4000.47,0,1,3,2
4000.47,0,0,2,2
4000.48,-2,-7,-8,-6
4000.48,-6,-10,-10,-3
4000.48,0,-5,-10,-2
4000.48,5,0,-3,3
4000.48,7,3,3,9
4000.48,12,5,4,11
4000.48,13,9,6,11
4000.48,14,9,5,8
4000.48,11,8,3,2
4000.48,4,2,-1,-2
4000.48,1,2,1,0
4000.48,3,7,9,6
4000.48,5,9,9,4
4000.48,1,5,6,-1
4000.48,-2,4,5,-3
4000.48,-4,3,5,-1
4000.48,-2,5,8,0
4000.48,-3,4,7,0
4000.49,-3,1,4,-2
4000.49,-5,-1,0,-3
4000.49,-5,-4,-1,-1
4000.49,-1,0,1,2
4000.49,2,3,6,6
4000.49,5,4,4,4
4000.49,3,1,0,1
4000.49,4,2,-3,-1
4000.49,6,6,-2,-1
4000.49,7,7,0,0
4000.49,7,7,0,0
4000.49,8,8,2,2
4000.49,8,9,4,5
4000.49,8,7,6,6
4000.49,6,5,5,5
4000.49,3,4,8,6
4000.49,1,0,3,2
4000.5,-2,-4,0,1
4000.5,-3,-7,-2,4
4000.5,0,-5,-1,5
4000.5,5,0,0,7
4000.5,6,0,-1,7
4000.5,9,3,1,7
4000.5,10,5,2,5
4000.5,8,4,0,1
4000.5,6,6,3,3
4000.5,5,6,6,4
4000.5,5,7,8,6
4000.5,3,6,7,2
4000.5,0,2,2,-2
4000.5,-2,1,0,-5
4000.5,-2,3,0,-5
4000.5,0,6,0,-4
4000.5,1,7,0,-6
4000.51,0,6,2,-3
4000.51,0,7,7,2
4000.51,1,4,5,3
4000.51,2,3,4,3
4000.51,2,2,2,0
4000.51,0,0,0,0
4000.51,1,0,1,2
4000.51,3,2,2,2
4000.51,2,1,0,1
4000.51,2,1,0,2
4000.51,4,2,2,3
4000.51,5,4,3,5
4000.51,7,7,7,8
4000.51,9,8,8,8
4000.51,7,6,5,4
4000.51,5,4,2,2
4000.51,2,2,1,0
4000.51,1,0,0,1
4000.52,1,0,-2,0
4000.52,0,-5,-5,0
4000.52,1,-6,-7,1
4000.52,3,-3,-5,2
4000.52,7,0,0,7
4000.52,12,7,4,10
4000.52,12,7,4,7
4000.52,9,8,6,7
4000.52,7,8,6,4
4000.52,4,5,5,2
4000.52,1,4,5,1
4000.52,1,5,6,1
4000.52,1,7,6,-1
4000.52,0,7,7,-2
4000.52,-3,5,3,-6
4000.52,-5,3,0,-8
4000.52,-5,1,0,-7
4000.53,-5,2,1,-3
4000.53,-3,4,9,4
4000.53,0,2,7,6
4000.53,1,1,6,7
4000.53,1,0,3,5
4000.53,3,0,-1,0
4000.53,2,0,0,1
4000.53,5,2,-1,0
4000.53,5,4,0,1
4000.53,5,5,2,3
4000.53,6,5,2,4
4000.53,8,6,1,3
4000.53,8,7,5,6
4000.53,8,7,5,4
4000.53,5,5,1,1
4000.53,3,0,-1,-1
4000.53,1,0,-4,-1
4000.53,3,-1,-5,0
4000.54,1,-5,-7,1
4000.54,6,0,0,8
4000.54,12,6,4,9
4000.54,11,6,5,8
4000.54,7,4,6,9
4000.54,5,4,9,9
4000.54,4,2,7,7
4000.54,2,0,5,3
4000.54,0,-2,-2,-2
4000.54,-2,-1,-1,-1
4000.54,0,2,1,0
4000.54,3,7,6,2
4000.54,3,9,7,0
4000.54,2,8,6,-2
4000.54,0,5,1,-7
4000.54,-4,2,0,-8
4000.54,-5,2,-1,-6
4000.55,-2,5,2,-2
4000.55,0,5,3,0
4000.55,0,1,0,0
4000.55,0,3,4,4
4000.55,3,8,12,11
4000.55,6,6,10,10
4000.55,7,5,6,7
4000.55,4,3,5,5
4000.55,3,3,3,4
4000.55,1,0,1,2
4000.55,0,-3,-3,0
4000.55,2,0,-4,-2
4000.55,4,1,-6,-2
4000.55,5,4,0,1
4000.55,5,4,1,1
4000.55,5,4,1,3
4000.55,7,5,1,3
4000.55,8,10,13,13
4000.56,7,1,4,7
4000.56,2,-5,-4,3
4000.56,3,-1,-1,5
4000.56,5,1,2,7
4000.56,5,0,1,7
4000.56,6,0,0,4
4000.56,5,0,-4,-1
4000.56,3,0,-8,-6
4000.56,3,4,-4,-4
4000.56,5,7,1,0
4000.56,6,11,9,5
4000.56,7,13,13,5
4000.56,4,12,13,4
4000.56,2,11,12,2
4000.56,-1,4,5,-4
4000.56,-6,0,2,-5
4000.56,-9,-3,1,-3
4000.57,-5,0,2,-1
4000.57,-2,1,4,1
4000.57,0,2,4,2
4000.57,0,0,2,1
4000.57,1,1,0,1
4000.57,2,2,2,2
4000.57,4,5,6,6
4000.57,5,5,5,6
4000.57,4,4,5,4
4000.57,3,2,1,2
4000.57,2,1,1,2
4000.57,1,0,0,4
4000.57,3,0,-1,1
4000.57,3,0,-1,2
4000.57,6,3,0,3
4000.57,8,5,2,4
4000.57,8,6,3,5
4000.57,7,4,2,5
4000.58,5,1,0,5
4000.58,3,-1,0,4
4000.58,4,0,1,4
4000.58,1,-3,-3,2
4000.58,2,-1,0,4
4000.58,6,5,6,8
4000.58,7,6,7,7
4000.58,6,5,4,3
4000.58,4,4,3,1
4000.58,2,4,0,-1
4000.58,2,5,0,-4
4000.58,1,4,-4,-9
4000.58,0,7,-2,-7
4000.58,3,11,4,-1
4000.58,5,13,8,1
4000.58,4,11,7,0
4000.58,2,7,6,0
4000.59,0,5,3,-1
4000.59,-1,0,-1,-3
4000.59,-2,-1,-2,-3
4000.59,-1,0,0,0
4000.59,2,2,2,2
4000.59,3,2,1,3
4000.59,5,5,4,5
4000.59,7,6,7,8
4000.59,6,6,8,9
4000.59,5,6,11,10
4000.59,4,6,13,11
4000.59,1,1,6,4
4000.59,-2,-6,-4,-4
4000.59,-4,-5,-6,-4
4000.59,-2,-1,-3,-1
4000.59,0,-3,-7,-3
4000.59,2,0,-5,0
4000.6,6,2,0,5
4000.6,9,4,2,8
4000.6,11,5,4,10
4000.6,9,4,5,11
4000.6,7,0,2,10
4000.6,8,2,4,9
4000.6,7,3,4,6
4000.6,4,3,5,5
4000.6,3,1,2,2
4000.6,0,0,0,0
4000.6,1,1,-3,-3
4000.6,2,4,0,-3
4000.6,3,7,2,-2
4000.6,4,11,5,-2
4000.6,3,12,7,-1
4000.6,3,12,8,-1
4000.6,0,8,6,-3
4000.6,-2,4,2,-5
4000.61,-3,2,0,-5
4000.61,-3,0,-4,-7
4000.61,-2,0,-2,-4
4000.61,0,5,3,2
4000.61,4,6,6,5
4000.61,3,4,7,5
4000.61,3,6,13,12
4000.61,3,5,16,16
4000.61,1,-1,6,8
4000.61,-2,-8,-5,0
4000.61,0,-3,-4,0
4000.61,4,1,0,1
4000.61,5,2,-1,0
4000.61,4,2,1,3
4000.61,6,5,4,6
4000.61,8,7,6,7
4000.61,7,4,2,4
4000.62,4,0,-1,2
4000.62,4,-1,-2,3
4000.62,4,-1,-1,4
4000.62,5,0,0,5
4000.62,7,0,0,5
4000.62,7,2,0,4
4000.62,6,4,2,4
4000.62,6,6,3,3
4000.62,5,5,3,2
4000.62,4,5,3,1
4000.62,3,7,3,0
4000.62,2,7,3,-2
4000.62,1,9,6,0
4000.62,1,7,6,-1
4000.62,0,5,1,-4
4000.62,-1,3,-1,-7
4000.62,-2,2,0,-6
4000.62,0,5,2,-2
4000.63,0,7,9,3
4000.63,1,6,8,5
4000.63,2,4,6,4
4000.63,1,1,4,4
4000.63,1,2,7,6
4000.63,1,1,7,8
4000.63,2,0,6,7
4000.63,1,-3,-2,0
4000.63,-1,-7,-9,-4
4000.63,0,-2,-8,-4
4000.63,3,2,-2,0
4000.63,6,5,2,5
4000.63,10,9,5,7
4000.63,12,11,5,6
4000.63,10,9,4,4
4000.63,5,4,2,2
4000.63,3,2,1,3
4000.64,3,0,0,5
4000.64,5,1,1,7
4000.64,7,0,0,4
4000.64,4,-2,-1,3
4000.64,4,0,-1,4
4000.64,5,2,1,5
4000.64,7,4,2,4
4000.64,5,4,0,1
4000.64,2,2,0,0
4000.64,2,4,2,1
4000.64,3,8,6,3
4000.64,4,8,4,-1
4000.64,0,6,2,-5
4000.64,-2,4,2,-4
4000.64,-1,5,4,-2
4000.64,0,7,7,0
4000.64,2,9,9,2
4000.65,3,10,11,4
4000.65,0,6,12,7
4000.65,-1,0,7,4
4000.65,-5,-6,-1,-1
4000.65,-5,-7,-4,-3
4000.65,-2,-4,-6,-4
4000.65,-1,-2,-6,-5
4000.65,1,1,-4,-2
4000.65,4,7,4,5
4000.65,9,9,7,9
4000.65,12,10,7,9
4000.65,12,9,7,9
4000.65,10,8,6,6
4000.65,7,4,0,3
4000.65,5,3,-1,0
4000.65,5,3,-1,-1
4000.65,3,2,-1,0
4000.66,3,1,1,3
4000.66,2,-2,0,6
4000.66,4,1,5,10
4000.66,6,0,3,7
4000.66,2,-4,-2,2
4000.66,1,-3,-2,2
4000.66,2,0,0,3
4000.66,4,1,1,4
4000.66,6,5,3,3
4000.66,5,5,2,1
4000.66,3,4,1,0
4000.66,3,4,1,0
4000.66,4,6,2,0
4000.66,3,8,3,-1
4000.66,3,10,6,0
4000.66,3,12,10,0
4000.66,1,12,13,4
4000.66,0,9,14,3
4000.67,-1,7,11,0
4000.67,-6,0,4,-3
4000.67,-8,-2,0,-5
4000.67,-9,-6,-4,-6
4000.67,-8,-8,-6,-4
4000.67,-2,-4,-4,0
4000.67,2,0,-2,2
4000.67,7,2,-2,4
4000.67,9,4,-1,5
4000.67,12,8,4,9
4000.67,15,12,10,12
4000.67,14,12,10,10
4000.67,10,10,9,8
4000.67,6,6,4,3
4000.67,2,2,2,0
4000.67,0,0,-1,-2
4000.67,0,-1,-2,-2
4000.68,-1,-4,-6,-1
4000.68,0,-5,-6,0
4000.68,3,-3,-2,5
4000.68,6,-2,-2,7
4000.68,9,1,0,8
4000.68,12,7,5,10
4000.68,13,9,6,7
4000.68,9,7,5,4
4000.68,5,5,3,1
4000.68,2,3,3,0
4000.68,3,6,4,0
4000.68,2,6,6,0
4000.68,0,6,5,0
4000.68,-1,5,4,-2
4000.68,-2,4,5,-1
4000.68,-2,4,5,-1
4000.68,-2,2,2,-4
4000.68,-3,1,-1,-6
4000.69,-4,0,-2,-5
4000.69,-2,1,0,-1
4000.69,1,4,3,2
4000.69,4,5,3,2
4000.69,3,4,3,4
4000.69,4,2,3,6
4000.69,7,6,6,9
4000.69,9,7,7,7
4000.69,6,5,5,5
4000.69,5,3,4,5
4000.69,4,3,4,4
4000.69,2,0,1,1
4000.69,1,0,0,0
4000.69,0,0,0,1
4000.69,1,0,0,0
4000.69,0,-1,-3,0
4000.69,3,0,-1,2
4000.7,2,-3,-3,2
4000.7,4,0,0,7
4000.7,7,1,0,6
4000.7,9,1,-3,4
4000.7,10,4,0,4
4000.7,11,7,3,7
4000.7,11,9,6,6
4000.7,8,8,5,5
4000.7,5,6,5,3
4000.7,4,6,5,2
4000.7,1,3,2,-1
4000.7,0,3,2,-3
4000.7,-1,4,2,-3
4000.7,-1,4,3,-3
4000.7,0,5,4,-3
4000.7,-1,5,2,-4
4000.7,-4,1,0,-5
4000.7,-4,1,0,-3
4000.71,-3,2,3,0
4000.71,-1,3,6,4
4000.71,3,6,9,7
4000.71,5,7,8,7
4000.71,6,6,7,6
4000.71,5,5,5,4
4000.71,4,2,2,3
4000.71,3,2,4,3
4000.71,1,0,2,3
4000.71,1,0,0,2
4000.71,1,0,0,2
4000.71,2,0,0,0
4000.71,2,0,-3,0
4000.71,3,0,-2,0
4000.71,4,2,0,1
4000.71,4,3,0,1
4000.71,5,2,0,3
4000.72,4,0,0,5
4000.72,6,0,0,7
4000.72,10,3,3,9
4000.72,10,4,2,7
4000.72,10,5,4,8
4000.72,10,5,3,5
4000.72,6,4,1,3
4000.72,5,5,3,2
4000.72,5,6,5,3
4000.72,2,6,10,6
4000.72,1,3,5,0
4000.72,-3,-1,-3,-7
4000.72,-5,0,-4,-9
4000.72,-3,2,-3,-8
4000.72,-1,3,-5,-9
4000.72,1,7,0,-4
4000.72,6,16,11,6
4000.73,9,17,18,10
4000.73,4,9,13,7
4000.73,0,4,12,7
4000.73,-3,-2,4,1
4000.73,-7,-5,3,1
4000.73,-5,-4,3,2
4000.73,-4,-6,-5,-2
4000.73,-3,-5,-6,-3
4000.73,1,0,-1,0
4000.73,4,4,4,5
4000.73,7,6,5,7
4000.73,9,8,7,10
4000.73,10,8,7,8
4000.73,8,6,5,4
4000.73,5,3,3,2
4000.73,2,0,0,1
4000.73,1,0,-2,0
4000.73,0,-2,-4,0
4000.74,3,-3,-4,2
4000.74,5,0,-3,3
4000.74,7,1,-1,4
4000.74,8,3,2,9
4000.74,11,6,4,8
4000.74,11,8,4,6
4000.74,8,7,4,4
4000.74,4,3,2,1
4000.74,2,2,0,-2
4000.74,0,1,-1,-1
4000.74,3,7,5,1
4000.74,4,9,5,0
4000.74,1,8,6,-1
4000.74,0,6,6,0
4000.74,0,7,6,-1
4000.74,-1,4,3,-2
4000.74,-2,1,1,-3
4000.75,-3,1,2,-2
4000.75,-2,1,2,1
4000.75,0,0,0,1
4000.75,0,0,0,0
4000.75,1,0,0,0
4000.75,2,1,0,2
4000.75,4,4,3,4
4000.75,6,6,5,6
4000.75,8,7,6,6
4000.75,8,6,4,5
4000.75,6,4,2,3
4000.75,5,3,1,2
4000.75,4,3,1,2
4000.75,4,4,3,4
4000.75,4,5,5,5
4000.75,4,4,3,3
4000.75,2,2,1,1
4000.75,-1,-4,-4,0
4000.76,-1,-6,-4,1
4000.76,1,-3,-3,4
4000.76,3,-3,-2,5
4000.76,7,0,0,7
4000.76,10,4,4,8
4000.76,10,5,3,6
4000.76,8,6,4,3
4000.76,5,5,3,2
4000.76,5,5,3,2
4000.76,5,5,2,0
4000.76,3,6,2,-1
4000.76,1,7,4,-2
4000.76,0,7,5,-2
4000.76,0,6,4,-2
4000.76,0,6,4,-3
4000.76,-1,5,3,-3
4000.76,-1,4,4,-1
4000.77,-1,3,3,0
4000.77,0,2,2,1
4000.77,0,2,3,2
4000.77,1,3,5,4
4000.77,1,1,4,4
4000.77,1,1,4,5
4000.77,3,2,4,5
4000.77,3,1,1,2
4000.77,3,0,0,2
4000.77,2,0,-1,1
4000.77,3,0,-2,1
4000.77,5,2,0,3
4000.77,7,5,3,5
4000.77,8,7,5,6
4000.77,8,7,6,6
4000.77,6,4,2,2
4000.77,2,1,0,2
4000.77,1,-4,-2,2
4000.78,1,-5,-7,0
4000.78,4,-2,-6,1
4000.78,6,2,0,8
4000.78,11,6,4,9
4000.78,10,5,3,6
4000.78,7,5,4,3
4000.78,5,6,5,3
4000.78,4,7,6,3
4000.78,2,5,3,0
4000.78,1,6,5,0
4000.78,1,6,3,-2
4000.78,0,6,0,-5
4000.78,-1,6,1,-5
4000.78,-1,5,2,-4
4000.78,-1,5,3,-2
4000.78,0,4,4,0
4000.78,2,7,7,4
4000.79,3,6,7,3
4000.79,0,0,1,0
4000.79,-2,-1,2,2
4000.79,0,0,2,3
4000.79,0,1,3,3
4000.79,1,3,5,5
4000.79,3,2,5,6
4000.79,4,3,4,5
4000.79,3,1,1,2
4000.79,1,-1,-1,0
4000.79,1,0,-2,0
4000.79,3,2,0,2
4000.79,5,5,2,2
4000.79,5,5,2,3
4000.79,6,6,4,5
4000.79,7,5,4,4
4000.79,4,4,3,4
4000.8,3,-1,0,3
4000.8,1,-4,-4,2
4000.8,3,-1,-1,4
4000.8,5,0,0,6
4000.8,8,2,1,5
4000.8,7,3,1,5
4000.8,7,4,3,6
4000.8,7,4,3,4
4000.8,5,3,1,2
4000.8,2,3,2,1
4000.8,3,6,4,1
4000.8,3,7,4,-1
4000.8,2,8,4,-2
4000.8,0,6,3,-3
4000.8,0,8,7,-1
4000.8,-1,8,8,0
4000.8,-2,5,7,0
4000.8,-2,3,3,-2
4000.81,-4,-1,0,-4
4000.81,-4,0,0,-1
4000.81,-1,-1,-1,0
4000.81,1,0,-3,0
4000.81,4,2,-3,0
4000.81,7,3,0,4
4000.81,10,8,4,8
4000.81,11,12,13,13
4000.81,11,11,14,13
4000.81,7,4,8,8
4000.81,4,1,0,0
4000.81,0,-3,-5,-3
4000.81,-2,-2,-5,-3
4000.81,0,1,-1,0
4000.81,3,5,3,2
4000.81,4,5,4,4
4000.81,4,1,2,4
4000.82,2,-2,0,4
4000.82,2,-2,0,6
4000.82,5,-2,-2,5
4000.82,5,-3,-5,2
4000.82,5,0,-1,4
4000.82,7,4,3,6
4000.82,9,8,6,7
4000.82,9,9,7,6
4000.82,8,8,6,3
4000.82,4,6,3,0
4000.82,1,5,3,-1
4000.82,0,3,2,-2
4000.82,0,6,5,0
4000.82,1,8,6,-1
4000.82,0,7,5,-2
4000.82,-3,3,2,-4
4000.82,-4,0,0,-4
4000.82,-3,1,2,-1
4000.83,0,3,3,1
4000.83,2,3,4,3
4000.83,4,4,4,2
4000.83,2,3,3,3
4000.83,3,3,3,3
4000.83,3,2,2,4
4000.83,4,2,2,3
4000.83,4,2,1,2
4000.83,3,2,1,2
4000.83,4,4,3,3
4000.83,4,4,4,4
4000.83,4,3,2,4
4000.83,4,2,0,2
4000.83,3,0,0,1
4000.83,3,0,0,3
4000.83,3,-1,-2,2
4000.83,3,-2,-4,2
4000.84,5,0,-1,4
4000.84,7,3,1,4
4000.84,6,4,3,5
4000.84,7,4,4,7
4000.84,7,5,4,6
4000.84,7,4,3,3
4000.84,4,3,2,3
4000.84,3,4,4,3
4000.84,3,4,4,2
4000.84,2,4,3,0
4000.84,1,4,3,-1
4000.84,0,5,3,-2
4000.84,-1,5,4,-2
4000.84,-1,6,4,-2
4000.84,0,7,6,0
4000.84,0,6,4,-2
4000.84,-1,4,2,-3
4000.85,-2,2,0,-3
4000.85,-2,1,2,0
4000.85,1,4,4,2
4000.85,2,4,4,3
4000.85,3,2,2,3
4000.85,3,2,1,2
4000.85,3,0,0,3
4000.85,5,1,1,5
4000.85,7,4,4,8
4000.85,7,4,4,6
4000.85,5,2,1,3
4000.85,3,0,-1,3
4000.85,5,2,0,4
4000.85,5,4,1,2
4000.85,5,3,0,1
4000.85,4,3,2,3
4000.85,4,3,4,6
4000.85,2,-1,1,5
4000.86,2,-3,0,4
4000.86,1,-3,-1,3
4000.86,2,-2,-1,5
4000.86,6,1,1,6
4000.86,8,4,0,3
4000.86,6,3,0,1
4000.86,5,5,1,1
4000.86,5,6,2,1
4000.86,6,8,4,1
4000.86,6,9,5,1
4000.86,4,9,6,1
4000.86,3,8,7,0
4000.86,0,6,5,-1
4000.86,-1,4,5,-3
4000.86,-3,4,4,-2
4000.86,-3,3,3,-2
4000.86,-3,3,5,0
4000.86,-3,0,1,0
4000.87,-3,-1,2,0
4000.87,-2,0,3,2
4000.87,1,1,2,3
4000.87,3,3,2,4
4000.87,5,3,0,2
4000.87,6,3,-2,0
4000.87,6,4,-2,0
4000.87,7,7,2,3
4000.87,9,9,7,7
4000.87,9,8,5,7
4000.87,8,6,6,7
4000.87,6,3,3,5
4000.87,3,-1,-3,0
4000.87,1,-1,-3,0
4000.87,2,0,0,0
4000.87,2,0,0,3
4000.87,3,-1,-1,4
4000.88,5,0,0,6
4000.88,6,2,3,7
4000.88,6,1,2,8
4000.88,8,2,0,3
4000.88,5,0,-3,0
4000.88,5,4,0,2
4000.88,5,6,2,2
4000.88,5,6,4,2
4000.88,4,6,6,4
4000.88,4,8,8,3
4000.88,3,8,9,0
4000.88,0,9,11,1
4000.88,-2,4,6,-3
4000.88,-4,3,4,-4
4000.88,-5,2,2,-6
4000.88,-7,0,0,-4
4000.88,-5,-1,-1,-5
4000.89,-5,-5,-5,-2
4000.89,-1,-2,-2,1
4000.89,3,1,0,4
4000.89,6,5,4,6
4000.89,9,9,7,9
4000.89,11,9,7,7
4000.89,9,7,4,6
4000.89,9,8,5,5
4000.89,7,6,3,2
4000.89,3,3,0,0
4000.89,1,1,1,2
4000.89,2,0,0,1
4000.89,2,2,2,3
4000.89,3,3,2,2
4000.89,2,1,0,1
4000.89,1,0,0,2
4000.89,1,0,0,5
4000.9,3,-1,0,4
4000.9,4,-2,-2,3
4000.9,3,-2,-2,4
4000.9,6,0,0,7
4000.9,10,5,5,9
4000.9,10,9,8,8
4000.9,8,7,7,4
4000.9,3,4,4,1
4000.9,0,2,2,1
4000.9,0,3,2,0
4000.9,0,3,2,-1
4000.9,-1,2,0,-3
4000.9,0,6,3,-3
4000.9,1,7,3,-3
4000.9,1,9,4,-3
4000.9,-1,5,1,-6
4000.9,-3,2,1,-3
4000.9,-2,1,1,-1
4000.91,0,2,2,1
4000.91,3,5,4,4
4000.91,4,4,4,3
4000.91,3,3,4,4
4000.91,3,2,2,3
4000.91,4,2,3,5
4000.91,6,3,0,4
4000.91,5,3,1,3
4000.91,5,4,2,4
4000.91,7,5,2,3
4000.91,6,7,7,6
4000.91,5,4,6,6
4000.91,2,3,6,6
4000.91,1,0,2,3
4000.91,0,0,0,1
4000.91,-1,-2,-3,-1
4000.91,-2,-6,-6,-1
4000.92,0,-4,-4,3
4000.92,4,0,0,6
4000.92,7,0,1,8
4000.92,8,1,0,7
4000.92,8,0,-1,5
4000.92,9,4,2,6
4000.92,10,8,5,6
4000.92,8,8,5,4
4000.92,6,7,4,1
4000.92,3,6,3,-1
4000.92,1,6,2,-3
4000.92,0,7,4,-2
4000.92,1,10,8,-1
4000.92,0,9,7,-1
4000.92,-1,5,3,-5
4000.92,-4,1,-2,-7
4000.92,-4,0,-1,-5
4000.92,-1,1,-1,-1
4000.93,1,2,0,1
4000.93,6,6,3,3
4000.93,6,6,4,3
4000.93,4,4,1,1
4000.93,2,3,3,4
4000.93,4,7,11,10
4000.93,5,5,9,7
4000.93,0,0,2,2
4000.93,-2,-1,2,3
4000.93,0,0,2,3
4000.93,1,0,0,1
4000.93,1,1,0,2
4000.93,4,2,0,2
4000.93,6,5,1,3
4000.93,8,4,0,1
4000.93,4,0,-4,0
4000.93,4,-1,-4,2
4000.94,7,2,2,8
4000.94,11,4,3,8
4000.94,7,3,6,10
4000.94,8,3,6,10
4000.94,7,1,2,4
4000.94,4,1,0,1
4000.94,3,1,-1,-1
4000.94,1,2,0,-1
4000.94,0,2,1,0
4000.94,0,3,2,0
4000.94,3,8,8,2
4000.94,3,10,8,0
4000.94,0,6,4,-2
4000.94,0,6,2,-3
4000.94,-1,5,2,-4
4000.94,-2,4,2,-3
4000.94,0,3,2,-2
4000.94,-1,0,0,-1
4000.95,0,2,1,2
4000.95,3,5,6,4
4000.95,4,5,7,7
4000.95,5,4,5,6
4000.95,4,4,4,2
4000.95,1,3,3,3
4000.95,2,3,3,3
4000.95,2,1,0,1
4000.95,2,2,0,1
4000.95,2,1,0,1
4000.95,3,0,-3,0
4000.95,4,-1,-4,0
4000.95,6,1,0,4
4000.95,8,5,3,5
4000.95,9,7,6,7
4000.95,7,3,3,6
4000.95,5,0,0,5
4000.96,6,1,2,7
4000.96,6,0,1,6
4000.96,5,0,0,4
4000.96,3,0,1,4
4000.96,3,2,3,5
4000.96,4,3,4,4
4000.96,2,2,2,1
4000.96,0,2,3,0
4000.96,0,3,5,1
4000.96,0,3,1,-3
4000.96,-1,3,0,-3
4000.96,0,7,2,-2
4000.96,1,7,6,0
4000.96,2,9,6,0
4000.96,0,7,4,-2
4000.96,0,6,5,-1
4000.96,-1,5,4,0
4000.97,-2,2,6,3
4000.97,0,3,7,5
4000.97,0,1,5,5
4000.97,1,0,2,1
4000.97,1,1,1,1
4000.97,0,1,-1,0
4000.97,2,0,-3,-2
4000.97,3,1,-5,-1
4000.97,6,5,-2,-1
4000.97,8,8,2,3
4000.97,9,10,6,7
4000.97,9,8,5,8
4000.97,9,5,3,7
4000.97,7,4,3,5
4000.97,5,4,4,5
4000.97,3,2,3,3
4000.97,1,-2,-1,2
4000.97,0,-4,-3,2
4000.98,2,-2,-1,1
4000.98,0,-4,-4,1
4000.98,1,-4,-2,4
4000.98,4,0,0,7
4000.98,7,2,2,7
4000.98,8,8,7,8
4000.98,7,7,6,5
4000.98,3,4,0,0
4000.98,2,5,5,1
4000.98,5,9,7,1
4000.98,3,9,7,0
4000.98,0,7,4,-2
4000.98,-2,4,2,-4
4000.98,-2,5,3,-3
4000.98,-1,5,2,-2
4000.98,-1,4,2,-2
4000.98,0,3,2,0
4000.99,0,3,2,0
4000.99,1,3,5,3
4000.99,3,4,6,4
4000.99,2,3,4,3
4000.99,1,1,2,3
4000.99,1,2,3,4
4000.99,2,1,2,3
4000.99,2,0,-1,1
4000.99,1,-2,-6,-2
4000.99,3,0,-2,1
4000.99,7,6,2,5
4000.99,10,8,6,7
4000.99,10,9,8,8
4000.99,9,7,5,5
4000.99,4,2,0,0
4000.99,2,0,-4,-1
4000.99,1,-3,-4,0
4000.99,3,-2,-2,3
4001,5,0,0,6
4001,6,0,1,7
4001,8,2,1,7
4001,8,4,3,7
4001,8,5,1,2
4001,6,5,0,0
4001,5,5,1,0
4001,5,6,2,0
4001,4,8,5,0
4001,2,9,8,2
4001,2,12,16,7
4001,0,5,10,3
4001,-3,0,6,0
4001,-6,-2,0,-5
4001,-9,-4,-1,-5
4001,-8,-1,0,-3
4001,-6,0,2,0
4001.01,-1,1,3,1
4001.01,0,2,2,0
4001.01,-1,0,0,0
4001.01,0,1,0,0
4001.01,4,6,4,4
4001.01,9,8,5,6
4001.01,11,11,5,6
4001.01,11,9,4,4
4001.01,9,8,6,5
4001.01,6,7,8,6
4001.01,4,3,3,3
4001.01,1,-1,-1,0
4001.01,0,-3,-3,0
4001.01,2,-1,-2,1
4001.01,4,3,2,4
4001.01,5,3,2,4
4001.01,3,0,0,2
4001.02,4,1,0,5
4001.02,6,3,0,3
4001.02,5,1,0,3
4001.02,5,2,1,4
4001.02,5,1,2,4
4001.02,5,3,3,6
4001.02,4,0,0,2
4001.02,2,0,1,3
4001.02,4,4,5,4
4001.02,5,8,7,4
4001.02,4,7,3,0
4001.02,1,3,-1,-4
4001.02,0,5,1,-4
4001.02,0,9,5,-2
4001.02,0,6,6,-1
4001.02,-2,2,3,-2
4001.02,-1,3,4,1
4001.02,0,2,3,2
4001.03,2,4,4,2
4001.03,1,2,2,2
4001.03,1,2,2,2
4001.03,2,3,2,2
4001.03,3,2,0,1
4001.03,1,0,0,1
4001.03,4,3,2,4
4001.03,5,4,3,5
4001.03,7,3,0,3
4001.03,5,2,0,2
4001.03,5,4,2,4
4001.03,5,4,2,3
4001.03,6,5,4,3
4001.03,5,4,3,3
4001.03,4,3,1,1
4001.03,0,-2,-1,1
4001.03,0,-3,-2,4
4001.04,4,0,0,5
4001.04,7,2,2,6
4001.04,6,1,3,5
4001.04,5,3,2,5
4001.04,5,1,1,3
4001.04,3,2,2,3
4001.04,3,1,0,1
4001.04,2,0,-1,0
4001.04,4,4,2,2
4001.04,5,8,5,1
4001.04,4,10,7,1
4001.04,4,9,5,-1
4001.04,2,9,5,-3
4001.04,0,8,6,-3
4001.04,-2,7,5,-3
4001.04,-2,5,5,-2
4001.04,-3,2,3,-1
4001.04,-1,2,3,0
4001.05,-1,1,2,0
4001.05,-1,0,2,0
4001.05,0,1,1,2
4001.05,2,2,1,3
4001.05,3,0,0,3
4001.05,4,0,1,5
4001.05,6,4,6,8
4001.05,7,5,7,8
4001.05,7,5,6,7
4001.05,5,4,4,4
4001.05,3,0,-2,-1
4001.05,0,-2,-6,-4
4001.05,0,0,-7,-5
4001.05,3,2,-5,-2
4001.05,7,7,0,2
4001.05,8,6,3,7
4001.05,9,5,6,10
4001.06,9,3,6,10
4001.06,7,2,2,9
4001.06,7,1,1,6
4001.06,6,1,0,2
4001.06,1,0,0,1
4001.06,1,1,0,0
4001.06,2,2,1,1
4001.06,3,4,3,2
4001.06,4,6,5,2
4001.06,3,7,5,0
4001.06,0,5,3,-2
4001.06,-1,4,4,-2
4001.06,-2,5,5,-1
4001.06,-1,5,5,-1
4001.06,-1,3,4,-1
4001.06,-1,3,1,-3
4001.06,-1,3,2,-1
4001.06,1,4,4,1
4001.07,2,3,1,1
4001.07,1,1,-1,-1
4001.07,1,1,-3,0
4001.07,5,5,0,1
4001.07,6,6,2,4
4001.07,8,7,6,7
4001.07,9,8,9,10
4001.07,9,9,11,10
4001.07,6,7,13,10
4001.07,2,1,7,6
4001.07,-1,-3,1,1
4001.07,-4,-8,-8,-4
4001.07,-4,-6,-8,-5
4001.07,-2,-2,-6,-3
4001.07,1,-1,-4,1
4001.07,5,1,0,6
4001.07,9,4,4,10
4001.08,11,5,5,10
4001.08,10,4,5,9
4001.08,9,6,7,10
4001.08,5,1,3,6
4001.08,4,1,0,2
4001.08,5,2,0,0
4001.08,2,3,0,-1
4001.08,1,3,0,-1
4001.08,1,6,2,0
4001.08,3,8,4,-1
4001.08,3,10,6,-1
4001.08,2,9,7,-1
4001.08,0,9,7,0
4001.08,-1,6,6,0
4001.08,-2,3,3,-1
4001.08,-2,2,1,-3
4001.08,-3,-3,-4,-3
4001.08,-2,-2,-2,0
4001.09,2,1,4,5
4001.09,6,6,6,8
4001.09,7,6,5,7
4001.09,7,6,5,4
4001.09,5,5,6,5
4001.09,3,4,6,5
4001.09,2,2,3,4
4001.09,1,-1,-1,-1
4001.09,0,-2,-4,-3
4001.09,-2,-3,-6,-4
4001.09,-1,-3,-7,-3
4001.09,2,1,-1,2
4001.09,10,11,9,11
4001.09,14,14,12,12
4001.09,10,7,6,8
4001.09,7,1,0,4
4001.09,5,0,-1,3
4001.1,4,0,-1,3
4001.1,4,0,-2,2
4001.1,5,-1,-5,0
4001.1,5,0,-4,0
4001.1,6,5,1,4
4001.1,8,7,5,5
4001.1,8,8,5,5
4001.1,6,8,5,3
4001.1,4,7,6,1
4001.1,3,8,6,0
4001.1,0,5,4,-3
4001.1,-3,3,1,-5
4001.1,-3,2,0,-6
4001.1,-4,3,0,-5
4001.1,-2,5,5,0
4001.1,0,4,4,2
4001.1,0,2,2,1
4001.11,2,3,2,3
4001.11,3,5,5,4
4001.11,3,3,3,2
4001.11,2,1,1,2
4001.11,2,2,2,3
4001.11,4,4,4,5
4001.11,4,4,4,3
4001.11,3,3,3,2
4001.11,1,2,4,3
4001.11,1,2,3,3
4001.11,2,0,0,3
4001.11,2,-1,-1,2
4001.11,2,0,-1,1
4001.11,2,1,0,3
4001.11,4,1,1,4
4001.11,3,0,1,7
4001.11,7,0,0,5
4001.11,8,0,-4,1
4001.12,6,0,-3,1
4001.12,7,4,1,5
4001.12,10,8,6,9
4001.12,10,8,7,7
4001.12,7,5,4,3
4001.12,4,3,1,1
4001.12,1,1,1,0
4001.12,2,5,4,2
4001.12,2,6,5,0
4001.12,1,6,3,-2
4001.12,0,5,1,-5
4001.12,-3,5,5,-1
4001.12,-1,6,6,-1
4001.12,-1,4,2,-2
4001.12,-2,2,2,-1
4001.12,-1,1,2,-1
4001.12,-1,2,4,2
4001.13,1,2,4,3
4001.13,2,2,3,3
4001.13,3,2,2,2
4001.13,4,2,0,0
4001.13,3,1,0,0
4001.13,3,2,0,1
4001.13,5,5,5,7
4001.13,8,7,9,9
4001.13,7,5,6,6
4001.13,4,1,1,2
4001.13,2,0,-1,1
4001.13,2,1,0,1
4001.13,3,3,3,3
4001.13,4,4,3,3
4001.13,3,1,1,2
4001.13,0,-3,-4,1
4001.13,1,-4,-3,3
4001.14,5,-1,-3,3
4001.14,6,0,-1,4
4001.14,9,5,0,6
4001.14,11,6,2,5
4001.14,9,5,1,3
4001.14,7,6,4,4
4001.14,5,8,10,8
4001.14,5,8,12,8
4001.14,3,6,8,3
4001.14,0,1,1,-3
4001.14,-3,1,1,-5
4001.14,-3,2,0,-6
4001.14,-3,3,0,-6
4001.14,-3,4,2,-4
4001.14,0,5,4,-1
4001.14,0,7,6,0
4001.14,1,5,5,1
4001.14,0,2,2,1
4001.15,1,1,0,2
4001.15,3,3,1,3
4001.15,4,3,1,2
4001.15,3,2,1,2
4001.15,5,4,2,3
4001.15,4,5,5,6
4001.15,5,5,6,7
4001.15,5,3,5,6
4001.15,5,2,6,7
4001.15,4,3,7,8
4001.15,1,-1,0,2
4001.15,0,-4,-5,-2
4001.15,0,-2,-5,-3
4001.15,2,1,-2,0
4001.15,4,3,0,3
4001.15,6,2,0,3
4001.15,5,2,0,4
4001.16,7,3,0,6
4001.16,8,3,1,6
4001.16,9,5,3,6
4001.16,8,3,2,5
4001.16,7,4,3,4
4001.16,6,5,3,2
4001.16,3,3,1,0
4001.16,2,3,1,0
4001.16,2,5,3,0
4001.16,2,6,3,0
4001.16,1,7,4,-1
4001.16,0,6,4,-1
4001.16,0,6,5,0
4001.16,0,6,4,0
4001.16,0,6,5,-1
4001.16,-1,5,6,-1
4001.16,-2,1,2,-1
4001.16,-2,0,3,0
4001.17,0,1,3,2
4001.17,2,2,3,2
4001.17,2,1,2,3
4001.17,1,-1,-3,0
4001.17,1,-4,-6,0
4001.17,4,2,1,4
4001.17,8,7,4,5
4001.17,9,6,1,2
4001.17,6,5,2,2
4001.17,5,5,3,3
4001.17,4,5,5,4
4001.17,4,4,5,6
4001.17,6,6,7,7
4001.17,6,6,8,7
4001.17,3,1,3,6
4001.17,0,-5,-2,3
4001.17,-1,-11,-8,2
4001.18,0,-10,-8,2
4001.18,5,-4,-6,3
4001.18,9,4,-1,3
4001.18,11,9,4,5
4001.18,10,10,6,5
4001.18,9,11,6,4
4001.18,7,11,9,4
4001.18,6,11,9,2
4001.18,2,8,7,-1
4001.18,-2,5,3,-4
4001.18,-5,0,0,-7
4001.18,-5,1,-1,-8
4001.18,-5,1,0,-7
4001.18,-4,2,-1,-7
4001.18,-3,3,1,-3
4001.18,0,5,5,1
4001.18,2,5,6,4
4001.19,4,6,8,6
4001.19,5,5,6,5
4001.19,4,4,5,5
4001.19,4,3,4,4
4001.19,3,3,3,5
4001.19,3,2,2,2
4001.19,2,0,0,2
4001.19,2,0,0,3
4001.19,4,2,1,2
4001.19,4,2,1,2
4001.19,3,2,1,2
4001.19,4,4,3,4
4001.19,4,4,3,4
4001.19,3,2,1,2
4001.19,2,0,0,2
4001.19,1,-5,-6,3
4001.19,3,-4,-4,4
4001.19,7,1,0,6
4001.2,8,3,3,9
4001.2,10,6,5,8
4001.2,10,8,7,8
4001.2,8,5,5,4
4001.2,4,3,3,1
4001.2,1,0,0,-1
4001.2,0,0,0,-1
4001.2,1,4,1,0
4001.2,2,5,2,-2
4001.2,1,6,1,-4
4001.2,0,7,2,-3
4001.2,1,7,3,-3
4001.2,1,10,8,0
4001.2,0,10,12,3
4001.2,0,5,7,1
4001.2,-2,0,1,0
4001.2,-4,-2,-1,-1
4001.21,-1,-1,0,0
4001.21,0,0,0,2
4001.21,3,3,5,6
4001.21,5,6,9,9
4001.21,5,4,6,7
4001.21,3,0,1,2
4001.21,1,0,0,0
4001.21,1,0,0,0
4001.21,1,0,0,1
4001.21,3,2,1,2
4001.21,5,3,0,2
4001.21,5,4,0,3
4001.21,6,5,1,2
4001.21,6,5,1,3
4001.21,6,3,0,3
4001.21,5,0,-3,2
4001.21,5,0,-1,5
4001.21,6,1,2,8
4001.22,7,2,3,8
4001.22,8,3,2,7
4001.22,8,4,1,4
4001.22,6,3,2,4
4001.22,6,6,4,2
4001.22,4,4,2,0
4001.22,0,2,0,-1
4001.22,1,4,3,0
4001.22,1,6,5,0
4001.22,1,7,5,-1
4001.22,0,7,7,-1
4001.22,-1,7,8,0
4001.22,-1,6,8,0
4001.22,-2,3,5,-1
4001.22,-3,0,1,-4
4001.22,-6,-2,-1,-3
4001.22,-4,-1,0,0
4001.23,0,-1,-2,0
4001.23,3,2,0,0
4001.23,5,4,3,3
4001.23,6,6,4,5
4001.23,8,8,5,7
4001.23,8,10,10,11
4001.23,7,4,4,5
4001.23,4,-1,-7,-4
4001.23,1,0,-5,-3
4001.23,4,3,-1,0
4001.23,6,5,0,3
4001.23,6,6,3,4
4001.23,8,7,5,6
4001.23,7,6,5,6
4001.23,4,4,8,9
4001.23,2,0,6,7
4001.23,0,-6,-2,2
4001.23,-1,-5,0,4
4001.24,2,-2,0,5
4001.24,2,-1,0,3
4001.24,3,-2,-2,1
4001.24,5,1,0,3
4001.24,7,5,2,3
4001.24,6,4,0,0
4001.24,5,5,2,1
4001.24,6,10,7,3
4001.24,6,12,9,1
4001.24,4,9,6,0
4001.24,1,6,3,-3
4001.24,0,6,3,-4
4001.24,-2,2,0,-6
4001.24,-4,2,0,-4
4001.24,-1,5,5,1
4001.24,0,4,8,5
4001.24,1,1,4,3
4001.25,0,2,5,4
4001.25,0,0,1,1
4001.25,1,-1,-4,-1
4001.25,1,-1,-5,-1
4001.25,4,3,0,2
4001.25,6,7,5,5
4001.25,8,8,8,7
4001.25,8,8,8,6
4001.25,6,7,7,5
4001.25,3,3,4,3
4001.25,3,0,0,1
4001.25,1,0,0,1
4001.25,3,2,0,1
4001.25,2,0,-2,0
4001.25,0,-5,-7,-1
4001.25,0,-5,-6,1
4001.25,5,1,-1,5
4001.26,9,6,4,8
4001.26,11,9,9,10
4001.26,10,7,8,8
4001.26,5,3,5,4
4001.26,0,0,3,2
4001.26,-1,-2,1,2
4001.26,-2,-5,-4,0
4001.26,0,0,0,0
4001.26,4,7,4,2
4001.26,5,11,8,4
4001.26,7,13,10,3
4001.26,5,10,5,0
4001.26,2,7,2,-4
4001.26,0,7,2,-6
4001.26,-1,6,2,-4
4001.26,-2,5,4,-2
4001.26,-1,4,3,0
4001.26,0,0,0,-1
4001.27,0,0,-2,-1
4001.27,1,0,0,2
4001.27,3,3,6,8
4001.27,7,4,6,8
4001.27,7,4,4,5
4001.27,4,2,1,2
4001.27,1,0,0,0
4001.27,0,1,0,1
4001.27,2,2,3,3
4001.27,4,4,3,4
4001.27,4,4,3,4
4001.27,3,3,3,3
4001.27,4,4,3,4
4001.27,3,2,1,3
4001.27,3,0,0,4
4001.27,5,-1,-1,4
4001.27,5,0,0,3
4001.28,4,0,2,8
4001.28,6,4,6,10
4001.28,7,3,6,8
4001.28,5,2,1,3
4001.28,2,0,-4,-3
4001.28,0,0,-3,-3
4001.28,2,3,0,1
4001.28,6,8,4,1
4001.28,6,8,1,-1
4001.28,5,11,5,-1
4001.28,3,9,6,-1
4001.28,0,7,5,-2
4001.28,0,6,5,-1
4001.28,0,6,5,0
4001.28,0,5,3,-2
4001.28,-2,0,-1,-3
4001.28,-1,0,0,0
4001.28,1,2,1,3
4001.29,4,5,6,6
4001.29,6,5,7,6
4001.29,5,3,5,4
4001.29,2,1,2,2
4001.29,1,1,1,1
4001.29,2,1,0,0
4001.29,2,1,0,0
4001.29,1,0,-1,0
4001.29,3,0,-2,0
4001.29,5,3,0,2
4001.29,7,7,4,5
4001.29,9,9,5,6
4001.29,7,6,4,4
4001.29,4,1,1,3
4001.29,3,-1,0,4
4001.29,3,-2,-1,5
4001.29,5,0,1,6
4001.3,4,0,1,7
4001.3,6,1,2,5
4001.3,4,1,3,5
4001.3,5,2,3,5
4001.3,4,3,2,2
4001.3,3,2,0,0
4001.3,2,3,0,0
4001.3,3,6,4,0
4001.3,4,10,6,0
4001.3,2,7,3,-4
4001.3,-1,4,0,-4
4001.3,0,6,2,-2
4001.3,0,7,5,-1
4001.3,0,7,5,0
4001.3,0,5,5,0
4001.3,-1,1,3,1
4001.3,0,2,4,3
4001.31,1,3,6,4
4001.31,1,2,4,3
4001.31,1,0,1,3
4001.31,2,2,1,2
4001.31,2,2,2,2
4001.31,2,0,0,2
4001.31,2,0,-1,1
4001.31,4,4,3,4
4001.31,6,6,5,5
4001.31,4,5,6,5
4001.31,4,2,1,2
4001.31,1,0,-2,0
4001.31,3,0,-2,1
4001.31,4,2,0,3
4001.31,4,0,-1,5
4001.31,5,0,0,6
4001.31,7,3,4,9
4001.31,7,2,3,8
4001.32,8,3,5,8
4001.32,7,3,4,6
4001.32,4,-1,-4,-2
4001.32,2,0,-7,-5
4001.32,2,3,-4,-2
4001.32,4,7,4,2
4001.32,7,12,14,9
4001.32,6,12,16,9
4001.32,4,7,8,1
4001.32,-1,4,3,-3
4001.32,-4,2,1,-6
4001.32,-5,1,1,-6
4001.32,-6,0,1,-4
4001.32,-4,1,1,-3
4001.32,-2,2,2,0
4001.32,0,2,3,2
4001.32,1,2,3,2
4001.33,1,2,3,4
4001.33,3,1,1,4
4001.33,6,5,3,4
4001.33,7,7,4,4
4001.33,6,5,2,2
4001.33,3,2,0,0
4001.33,5,2,-4,0
4001.33,7,6,0,1
4001.33,8,7,4,4
4001.33,6,5,4,3
4001.33,3,4,5,5
4001.33,5,5,4,4
4001.33,5,5,5,4
4001.33,1,0,1,2
4001.33,-2,-5,-2,1
4001.33,0,-4,-2,3
4001.33,4,0,-1,3
4001.33,4,-1,-5,0
4001.34,4,0,-3,1
4001.34,6,4,2,5
4001.34,7,4,5,9
4001.34,8,5,4,8
4001.34,10,7,5,6
4001.34,7,6,4,2
4001.34,3,5,2,0
4001.34,1,5,3,-1
4001.34,1,7,5,0
4001.34,1,7,5,-1
4001.34,0,8,4,-4
4001.34,-2,6,2,-4
4001.34,-2,4,2,-4
4001.34,-2,3,2,-2
4001.34,-1,0,0,-1
4001.34,-1,0,0,0
4001.34,0,-2,-1,0
4001.35,2,0,0,4
4001.35,7,6,5,8
4001.35,9,8,6,7
4001.35,8,7,6,6
4001.35,5,5,4,4
4001.35,3,3,3,4
4001.35,2,2,3,3
4001.35,3,2,1,2
4001.35,3,1,0,2
4001.35,2,2,2,4
4001.35,2,1,4,5
4001.35,2,-1,-1,1
4001.35,0,-3,-3,0
4001.35,0,-4,-3,0
4001.35,1,-1,0,4
4001.35,3,1,3,8
4001.35,7,3,5,9
4001.35,7,3,3,7
4001.36,8,6,6,7
4001.36,7,4,3,3
4001.36,5,4,2,1
4001.36,2,2,0,0
4001.36,0,1,0,1
4001.36,2,3,2,1
4001.36,4,7,5,2
4001.36,4,7,5,1
4001.36,3,9,6,0
4001.36,3,9,5,-1
4001.36,0,6,1,-5
4001.36,-1,4,0,-5
4001.36,-1,3,-1,-6
4001.36,0,3,0,-3
4001.36,0,4,1,0
4001.36,3,6,4,2
4001.36,5,7,5,3
4001.37,4,6,5,4
4001.37,3,6,10,8
4001.37,3,5,10,8
4001.37,1,0,4,3
4001.37,-1,-4,-3,-1
4001.37,-2,-6,-5,-1
4001.37,0,-4,-3,1
4001.37,2,-1,-1,2
4001.37,5,2,2,6
4001.37,9,7,5,7
4001.37,10,7,4,4
4001.37,6,4,1,1
4001.37,4,5,3,3
4001.37,3,2,3,5
4001.37,3,0,1,5
4001.37,4,0,0,5
4001.37,4,0,2,5
4001.38,3,0,3,5
4001.38,2,0,1,4
4001.38,3,1,1,4
4001.38,4,3,0,0
4001.38,3,3,-3,-3
4001.38,1,0,-6,-3
4001.38,3,0,-9,-4
4001.38,8,9,1,2
4001.38,13,17,10,5
4001.38,11,17,11,3
4001.38,5,13,12,4
4001.38,3,13,16,7
4001.38,1,8,13,3
4001.38,-3,2,7,0
4001.38,-10,-7,-2,-6
4001.38,-13,-12,-9,-8
4001.38,-8,-7,-8,-7
4001.39,-2,-2,-5,-3
4001.39,2,2,-1,0
4001.39,7,7,3,5
4001.39,9,10,7,8
4001.39,10,9,7,7
4001.39,10,9,8,8
4001.39,8,7,5,4
4001.39,5,2,1,2
4001.39,3,1,0,2
4001.39,4,3,1,2
4001.39,3,2,2,1
4001.39,2,0,0,1
4001.39,1,0,0,1
4001.39,0,0,1,4
4001.39,2,-1,0,5
4001.39,4,-1,0,5
4001.39,5,0,1,6
4001.39,5,1,3,7
4001.4,7,4,4,7
4001.4,6,3,1,4
4001.4,6,2,0,2
4001.4,4,3,3,3
4001.4,3,5,4,3
4001.4,1,3,3,1
4001.4,2,4,0,-1
4001.4,0,4,0,-3
4001.4,0,6,5,-1
4001.4,0,7,8,1
4001.4,1,7,7,1
4001.4,1,7,5,0
4001.4,0,3,0,-4
4001.4,-2,0,-4,-8
4001.4,-3,1,-2,-4
4001.4,1,4,1,1
4001.4,5,7,6,5
4001.41,7,8,7,6
4001.41,5,6,6,5
4001.41,3,3,4,3
4001.41,2,2,2,3
4001.41,3,2,2,2
4001.41,1,0,1,3
4001.41,3,2,2,4
4001.41,5,3,5,5
4001.41,5,4,5,5
4001.41,3,1,0,2
4001.41,2,0,0,1
4001.41,2,0,-1,0
4001.41,2,0,-1,0
4001.41,1,0,-3,0
4001.41,3,0,-1,3
4001.41,6,1,0,6
4001.41,9,3,1,6
4001.41,8,1,-1,5
4001.42,8,5,3,6
4001.42,8,6,3,6
4001.42,7,5,2,2
4001.42,6,5,3,2
4001.42,4,5,4,2
4001.42,2,1,1,1
4001.42,2,5,4,1
4001.42,1,7,8,3
4001.42,1,7,9,2
4001.42,0,5,7,0
4001.42,-2,4,8,0
4001.42,-4,0,1,-4
4001.42,-6,-1,-2,-7
4001.42,-4,0,0,-5
4001.42,-2,1,0,-1
4001.42,1,4,3,1
4001.42,2,5,5,3
4001.43,3,6,8,6
4001.43,4,4,5,6
4001.43,4,3,2,3
4001.43,3,0,0,2
4001.43,2,-2,-4,0
4001.43,3,0,-2,2
4001.43,6,5,3,6
4001.43,9,8,4,6
4001.43,8,6,3,5
4001.43,6,5,3,4
4001.43,4,4,2,3
4001.43,4,3,2,2
4001.43,2,1,1,1
4001.43,0,-2,-1,2
4001.43,0,-4,-2,3
4001.43,1,-4,-2,4
4001.43,5,0,0,7
4001.43,9,1,1,8
4001.44,10,5,2,7
4001.44,10,6,2,6
4001.44,9,8,6,6
4001.44,8,9,7,3
4001.44,3,7,6,1
4001.44,1,5,6,0
4001.44,0,7,6,-2
4001.44,-2,6,3,-6
4001.44,-6,0,-1,-9
4001.44,-8,-2,-5,-10
4001.44,-6,-1,-5,-8
4001.44,-1,4,0,-4
4001.44,2,7,3,-1
4001.44,2,8,6,2
4001.44,5,9,8,7
4001.44,8,9,9,8
4001.44,7,6,8,8
4001.45,4,1,1,3
4001.45,3,0,-3,0
4001.45,2,0,-2,0
4001.45,4,3,0,1
4001.45,5,4,0,0
4001.45,4,4,1,3
4001.45,5,5,4,5
4001.45,5,7,8,8
4001.45,6,8,11,9
4001.45,4,5,12,11
4001.45,0,-2,3,4
4001.45,-2,-3,1,4
4001.45,0,-3,-1,0
4001.45,-3,-10,-11,-5
4001.45,-4,-11,-13,-4
4001.45,0,-8,-11,0
4001.45,7,2,0,9
4001.45,15,10,9,14
4001.46,16,12,12,14
4001.46,13,9,8,10
4001.46,10,8,7,5
4001.46,5,5,3,0
4001.46,1,2,0,-2
4001.46,-1,0,-1,-3
4001.46,0,4,2,-1
4001.46,0,6,5,0
4001.46,0,8,7,0
4001.46,-1,7,7,-2
4001.46,-3,4,5,-2
4001.46,-4,3,4,-2
4001.46,-3,3,4,-1
4001.46,-3,-1,-2,-3
4001.46,-2,-3,-7,-4
4001.46,1,2,-2,0
4001.46,6,7,2,4
4001.47,9,10,7,8
4001.47,11,10,7,7
4001.47,8,8,6,6
4001.47,6,5,4,3
4001.47,2,2,3,2
4001.47,2,2,3,3
4001.47,1,0,1,3
4001.47,1,-1,-1,0
4001.47,1,0,0,1
4001.47,3,3,1,2
4001.47,4,3,1,2
4001.47,3,2,1,4
4001.47,5,2,1,5
4001.47,5,0,1,6
4001.47,4,-1,-2,3
4001.47,4,-3,-4,3
4001.47,5,-1,-3,4
4001.48,7,3,1,6
4001.48,8,4,2,4
4001.48,7,5,2,2
4001.48,6,5,1,0
4001.48,3,6,3,1
4001.48,4,6,3,0
4001.48,4,7,4,0
4001.48,2,8,4,0
4001.48,3,9,6,0
4001.48,2,10,9,1
4001.48,1,11,14,4
4001.48,-1,6,12,3
4001.48,-5,0,5,-1
4001.48,-6,-1,1,-3
4001.48,-7,-4,-1,-2
4001.48,-5,-4,-1,-2
4001.48,-3,-2,-1,0
4001.48,0,0,1,2
4001.49,3,2,2,4
4001.49,5,4,3,3
4001.49,6,5,2,3
4001.49,4,2,0,2
4001.49,4,5,4,5
4001.49,7,6,6,7
4001.49,7,7,6,6
4001.49,6,6,5,4
4001.49,4,5,5,3
4001.49,3,3,3,2
4001.49,1,0,0,0
4001.49,0,0,-2,0
4001.49,0,-4,-4,0
4001.49,0,-6,-6,3
4001.49,5,-5,-9,2
4001.49,9,1,-3,5
4001.49,11,6,3,10
4001.5,13,7,4,8
4001.5,11,7,4,8
4001.5,10,8,5,6
4001.5,9,7,3,1
4001.5,4,5,3,1
4001.5,3,5,4,1
4001.5,2,6,5,0
4001.5,1,6,5,-1
4001.5,0,5,4,-2
4001.5,-2,4,3,-4
4001.5,-4,3,3,-3
4001.5,-4,3,5,-1
4001.5,-3,2,4,-1
4001.5,-3,1,1,-2
4001.5,-5,-2,-1,-2
4001.5,-3,-1,-1,-1
4001.5,0,3,3,3
4001.5,6,6,4,4
4001.51,7,7,4,5
4001.51,8,8,7,6
4001.51,8,7,7,7
4001.51,5,3,3,6
4001.51,4,1,1,5
4001.51,6,3,1,2
4001.51,3,1,0,1
4001.51,1,0,-1,0
4001.51,2,0,-2,0
4001.51,3,3,1,2
4001.51,5,4,2,2
4001.51,5,4,0,1
4001.51,3,2,1,5
4001.51,6,1,1,5
4001.51,6,1,0,5
4001.51,6,1,1,6
4001.51,6,1,1,6
4001.52,5,0,2,6
4001.52,4,2,4,8
4001.52,6,4,6,7
4001.52,3,2,4,3
4001.52,1,2,4,3
4001.52,1,3,5,2
4001.52,0,2,0,-3
4001.52,-3,1,-1,-6
4001.52,-3,4,0,-5
4001.52,-1,7,3,-3
4001.52,0,8,5,-1
4001.52,1,8,6,0
4001.52,1,7,4,0
4001.52,0,4,1,0
4001.52,0,3,0,-1
4001.52,1,3,1,1
4001.52,3,5,3,2
4001.53,3,5,4,5
4001.53,6,7,5,5
4001.53,6,8,7,6
4001.53,5,6,6,4
4001.53,4,4,4,3
4001.53,0,0,0,1
4001.53,0,-1,0,0
4001.53,0,-3,-1,2
4001.53,0,-2,-1,2
4001.53,2,0,0,4
4001.53,5,2,0,5
4001.53,8,5,4,6
4001.53,7,5,3,5
4001.53,5,1,0,5
4001.53,5,0,-1,4
4001.53,5,0,0,3
4001.53,5,0,0,4
4001.53,5,0,-1,3
4001.54,4,0,0,3
4001.54,5,3,1,3
4001.54,6,6,4,5
4001.54,6,7,8,7
4001.54,6,9,10,7
4001.54,4,5,7,3
4001.54,1,2,3,0
4001.54,-2,1,0,-4
4001.54,-3,1,-1,-7
4001.54,-3,1,-3,-7
4001.54,0,6,0,-4
4001.54,3,11,6,0
4001.54,3,11,7,0
4001.54,2,8,6,1
4001.54,1,5,5,0
4001.54,2,5,5,3
4001.54,1,1,2,1
4001.55,0,0,1,1
4001.55,0,0,1,2
4001.55,2,1,1,3
4001.55,4,3,2,3
4001.55,4,3,1,4
4001.55,4,4,4,5
4001.55,4,4,6,6
4001.55,4,3,3,4
4001.55,4,3,1,2
4001.55,3,2,0,1
4001.55,3,1,0,0
4001.55,2,2,1,2
4001.55,2,0,1,3
4001.55,3,-2,-2,4
4001.55,4,-1,0,5
4001.55,4,0,0,6
4001.55,5,-2,-3,4
4001.55,7,1,0,3
4001.56,6,2,0,3
4001.56,6,4,2,3
4001.56,4,4,2,2
4001.56,4,5,4,3
4001.56,3,6,5,2
4001.56,3,7,7,4
4001.56,4,11,11,4
4001.56,4,10,10,2
4001.56,0,5,5,-2
4001.56,-2,3,2,-4
4001.56,-3,2,1,-5
4001.56,-3,1,0,-5
4001.56,-3,1,-2,-6
4001.56,-1,2,-1,-2
4001.56,1,3,0,0
4001.56,5,6,1,2
4001.56,5,6,3,4
4001.57,7,7,6,6
4001.57,7,8,9,9
4001.57,7,5,4,5
4001.57,3,1,0,1
4001.57,2,0,-1,0
4001.57,1,0,-1,0
4001.57,3,1,-1,2
4001.57,5,5,3,5
4001.57,6,6,7,7
4001.57,7,7,9,7
4001.57,3,4,8,7
4001.57,0,0,6,6
4001.57,-2,-7,-4,0
4001.57,-4,-10,-8,-1
4001.57,-1,-7,-6,0
4001.57,2,-4,-6,1
4001.57,5,-3,-8,1
4001.57,12,6,0,5
4001.58,14,12,7,9
4001.58,14,15,11,10
4001.58,11,10,9,6
4001.58,7,9,8,4
4001.58,5,8,6,0
4001.58,0,4,1,-4
