Program Time [s],data 0,data 1,data 2,data 3
387.67,3,0,-1,2
387.67,3,0,-1,3
387.671,5,1,0,4
387.672,6,2,0,3
387.672,5,2,1,4
387.673,4,-1,0,4
387.673,3,-2,0,6
387.674,5,-1,0,7
387.674,7,0,2,10
387.675,8,0,1,8
387.676,8,2,2,7
387.676,8,3,2,5
387.677,7,5,2,2
387.677,4,4,3,1
387.678,4,5,2,0
387.678,2,5,2,0
387.679,2,8,5,-1
387.68,0,8,8,0
387.68,0,9,7,-2
387.681,-2,6,4,-5
387.681,-3,6,2,-7
387.682,-4,4,3,-5
387.683,-4,4,1,-6
387.683,-3,4,3,-2
387.684,-1,2,3,0
387.684,0,3,1,0
387.685,1,4,2,1
387.685,2,4,3,2
387.686,3,4,4,3
387.687,4,4,4,4
387.687,5,4,4,6
387.688,5,2,1,4
387.688,4,0,0,2
387.689,4,1,1,4
387.689,6,2,1,5
387.69,6,1,0,4
387.691,5,1,1,6
387.691,6,0,2,5
387.692,6,2,3,7
387.692,5,0,1,6
387.693,2,-3,-1,5
387.693,3,-5,-2,4
387.694,3,-3,-2,5
387.695,4,-3,-3,5
387.695,6,0,-1,7
387.696,10,5,4,9
387.696,11,6,3,5
387.697,8,7,3,3
387.697,5,4,1,0
387.698,4,5,1,0
387.699,3,7,3,0
387.699,4,10,5,0
387.7,2,9,7,-2
387.7,1,11,9,-2
387.701,-1,8,7,-4
387.701,-3,5,5,-5
387.702,-5,5,5,-4
387.703,-5,3,4,-4
387.703,-6,0,0,-5
387.704,-4,0,-2,-3
387.704,0,1,-1,-2
387.705,1,4,1,1
387.705,4,5,3,3
387.706,7,5,3,5
387.707,7,4,2,5
387.707,8,4,3,5
387.708,7,5,4,5
387.708,4,2,3,4
387.709,2,1,2,3
387.709,3,1,1,3
387.71,3,0,0,3
387.711,3,0,0,2
387.711,3,0,0,3
387.712,4,1,1,6
387.712,6,2,2,7
387.713,7,0,0,7
387.713,7,0,0,8
387.714,7,0,0,7
387.715,7,-1,0,8
387.715,9,3,3,9
387.716,8,5,5,8
387.716,7,4,5,6
387.717,4,2,1,0
387.717,0,0,-2,-3
387.718,-1,0,-2,-4
387.719,0,5,1,-4
387.719,0,8,4,-1
387.72,2,11,8,0
387.72,2,12,10,0
387.721,1,9,6,-3
387.721,-1,8,4,-5
387.722,-2,5,2,-6
387.723,-3,4,2,-4
387.723,-3,3,2,-2
387.724,-1,4,4,0
387.724,0,3,3,0
387.725,0,1,2,1
387.725,0,2,2,2
387.726,3,2,2,3
387.727,4,3,2,4
387.727,5,2,1,3
387.728,4,3,2,4
387.728,5,2,2,6
387.729,6,3,4,7
387.73,6,2,4,8
387.73,5,0,0,4
387.731,3,-1,-2,2
387.731,2,-2,-2,3
387.732,4,0,-1,4
387.732,5,-2,-2,4
387.733,5,-1,0,7
387.734,9,3,4,10
387.734,10,4,5,9
387.735,6,0,0,7
387.735,7,0,0,4
387.736,6,1,0,3
387.736,4,3,1,2
387.737,3,4,2,1
387.738,3,4,3,1
387.738,2,4,1,-1
387.739,2,6,1,-3
387.739,2,8,4,-3
387.74,2,11,7,0
387.741,2,12,9,-1
387.741,1,11,7,-3
387.742,-1,7,3,-6
387.742,-4,3,0,-8
387.743,-5,3,1,-5
387.743,-3,3,2,-2
387.744,-1,3,3,1
387.745,1,5,5,2
387.745,1,3,3,2
387.746,2,3,3,3
387.746,3,2,2,4
387.747,2,0,0,3
387.747,4,1,1,3
387.748,4,2,0,4
387.749,6,2,0,4
387.749,5,2,1,5
387.75,5,2,3,6
387.75,7,3,2,6
387.751,7,3,2,6
387.751,5,1,0,4
387.752,5,0,-3,2
387.753,3,-3,-3,3
387.753,3,-3,-2,7
387.754,6,0,0,8
387.754,7,0,2,8
387.755,7,0,1,7
387.755,7,2,2,6
387.756,7,3,2,5
387.757,7,5,3,3
387.757,4,5,3,2
387.758,2,5,3,0
387.758,1,6,3,-1
387.759,0,6,3,-3
387.759,0,8,5,-3
387.76,0,9,6,-3
387.761,-1,8,7,-3
387.761,-1,8,6,-3
387.762,-1,7,4,-5
387.762,-3,5,3,-4
387.763,-3,3,2,-3
387.763,-3,2,1,-2
387.764,-1,1,0,0
387.765,1,2,1,0
387.765,3,4,3,3
387.766,3,4,5,4
387.766,4,4,4,4
387.767,4,2,3,4
387.767,4,1,0,2
387.768,3,0,0,4
387.769,5,1,1,6
387.769,7,2,3,7
387.77,8,3,3,8
387.77,7,1,1,6
387.771,5,0,0,3
387.772,3,-1,-1,2
387.772,2,-1,-1,2
387.773,3,-2,-2,5
387.773,6,0,0,8
387.774,8,3,3,8
387.774,7,1,0,6
387.775,6,0,-1,4
387.776,6,1,0,4
387.776,6,2,1,4
387.777,8,6,3,4
387.777,6,6,3,1
387.778,4,6,4,1
387.778,3,8,7,2
387.779,2,9,7,0
387.78,1,9,6,-3
387.78,-1,7,5,-5
387.781,-3,5,4,-5
387.781,-3,5,3,-6
387.782,-3,5,1,-6
387.782,-4,4,2,-5
387.783,-3,4,3,-2
387.784,-2,4,4,0
387.784,0,3,3,1
387.785,1,2,3,1
387.785,1,3,2,2
387.786,3,4,3,3
387.786,5,4,2,3
387.787,5,3,3,6
387.788,6,2,1,5
387.788,7,2,1,6
387.789,6,1,2,6
387.789,6,1,0,4
387.79,5,0,-1,2
387.79,3,0,-1,2
387.791,4,0,0,3
387.792,4,2,2,5
387.792,5,1,2,6
387.793,4,0,0,5
387.793,5,-2,-1,7
387.794,6,0,0,7
387.795,6,0,1,8
387.795,8,1,1,6
387.796,7,1,-1,4
387.796,7,4,2,5
387.797,8,7,5,4
387.797,5,6,5,3
387.798,4,6,5,2
387.799,3,6,3,-2
387.799,0,5,1,-5
387.8,-1,6,3,-6
387.8,-1,7,4,-5
387.801,-2,8,4,-5
387.801,-2,7,3,-4
387.802,-1,7,3,-3
387.803,0,8,6,-1
387.803,0,5,4,0
387.804,-1,2,2,0
387.804,-1,1,2,0
387.805,1,1,1,0
387.805,1,1,1,2
387.806,2,3,2,3
387.807,3,2,1,4
387.807,6,4,3,5
387.808,6,5,5,6
387.808,6,4,6,7
387.809,5,0,3,5
387.809,4,0,0,3
387.81,2,0,-1,3
387.811,3,-1,0,5
387.811,5,0,0,4
387.812,5,0,-1,3
387.812,3,-1,-1,4
387.813,4,-1,0,8
387.813,7,0,1,9
387.814,8,0,1,8
387.815,6,-2,-2,6
387.815,8,2,1,6
387.816,9,4,2,5
387.816,9,9,5,4
387.817,6,5,2,1
387.818,2,5,3,0
387.818,2,5,5,1
387.819,2,7,6,0
387.819,0,7,6,-2
387.82,-2,7,5,-4
387.82,-3,5,3,-6
387.821,-2,7,3,-6
387.822,-2,7,3,-6
387.822,-2,5,0,-8
387.823,-4,2,-1,-8
387.823,-3,4,1,-2
387.824,0,7,7,3
387.824,4,7,7,5
387.825,4,6,6,4
387.826,4,5,5,5
387.826,4,4,5,6
387.827,4,2,3,4
387.827,3,1,2,4
387.828,3,0,0,2
387.828,1,0,0,3
387.829,2,-1,-1,2
387.83,4,0,-1,3
387.83,4,0,-1,3
387.831,5,1,0,5
387.831,7,3,1,6
387.832,7,3,2,7
387.832,6,0,0,6
387.833,6,-1,0,7
387.833,6,-1,0,7
387.834,7,1,1,9
387.835,9,2,2,7
387.835,7,1,1,4
387.836,5,1,0,2
387.836,6,4,3,2
387.837,5,6,5,3
387.838,4,7,6,2
387.838,3,6,5,0
387.839,1,6,4,-2
387.839,0,7,4,-3
387.84,-2,7,4,-4
387.84,-2,7,3,-5
387.841,-2,7,3,-5
387.842,-3,4,2,-5
387.842,-3,5,4,-2
387.843,-1,5,5,-1
387.843,-1,3,3,0
387.844,0,2,2,0
387.844,2,4,3,1
387.845,0,1,1,1
387.846,2,2,1,1
387.846,4,2,0,2
387.847,5,3,2,4
387.847,7,5,3,6
387.848,8,6,6,8
387.849,6,4,5,7
387.849,5,0,3,7
387.85,3,-1,0,3
387.85,2,-2,-2,2
387.851,3,-1,-1,4
387.851,4,0,-1,4
387.852,5,0,-1,3
387.852,4,-2,-1,6
387.853,7,-1,0,8
387.854,8,0,1,8
387.854,7,0,0,7
387.855,7,1,0,5
387.855,7,2,0,4
387.856,7,5,5,6
387.856,7,8,6,4
387.857,5,7,4,2
387.858,2,3,1,-1
387.858,1,6,4,0
387.859,1,7,5,-3
387.859,0,7,5,-3
387.86,-1,7,4,-5
387.86,-2,8,4,-4
387.861,-1,7,5,-4
387.862,-2,5,3,-5
387.862,-3,5,3,-4
387.863,-1,5,3,-1
387.863,0,5,3,0
387.864,1,4,3,1
387.865,1,5,4,2
387.865,1,2,2,2
387.866,2,1,2,2
387.866,3,2,2,5
387.867,5,3,2,5
387.867,4,2,1,4
387.868,3,1,2,5
387.869,5,2,2,5
387.869,5,2,3,6
387.87,6,2,1,6
387.87,5,0,-2,1
387.871,2,-2,-4,1
387.871,3,0,-1,4
387.872,5,0,1,7
387.873,6,0,0,8
387.873,7,0,0,8
387.874,7,0,0,9
387.874,7,0,0,8
387.875,9,2,2,8
387.875,8,3,1,5
387.876,6,3,3,3
387.877,5,5,3,3
387.877,4,4,1,1
387.878,3,4,2,0
387.878,3,6,3,0
387.879,2,7,3,-4
387.879,0,8,3,-6
387.88,-2,7,2,-7
387.881,-2,8,3,-7
387.881,-3,7,3,-6
387.882,-2,7,5,-4
387.882,0,9,8,0
387.883,0,5,6,1
387.883,0,4,4,0
387.884,0,2,2,1
387.885,0,2,3,2
387.885,3,4,5,5
387.886,4,3,4,4
387.886,4,5,6,3
387.887,2,2,3,3
387.888,1,0,0,2
387.888,1,0,0,3
387.889,2,0,0,3
387.889,4,0,-1,3
387.89,4,0,-1,4
387.89,6,1,1,6
387.891,6,2,2,7
387.892,7,3,2,7
387.892,6,0,0,6
387.893,5,-1,-1,6
387.893,6,-1,-1,6
387.894,8,0,1,8
387.894,8,0,1,7
387.895,7,2,2,6
387.896,6,3,2,5
387.896,6,4,3,4
387.897,4,4,3,0
387.897,2,3,1,0
387.898,1,4,1,-1
387.898,1,7,4,-1
387.899,1,8,5,-1
387.9,1,10,7,-1
387.9,0,9,6,-4
387.901,-1,7,4,-5
387.901,-3,5,3,-5
387.902,-3,4,2,-5
387.902,-3,4,2,-4
387.903,-2,2,0,-3
387.904,-1,3,1,0
387.904,2,5,4,2
387.905,2,5,4,2
387.905,3,4,2,2
387.906,5,4,2,3
387.906,5,5,3,5
387.907,5,4,4,5
387.908,5,2,1,4
387.908,4,1,0,5
387.909,4,0,2,6
387.909,5,1,2,5
387.91,4,0,0,4
387.91,3,-1,-1,3
387.911,4,0,-1,2
387.912,4,0,0,6
387.912,5,0,0,7
387.913,6,-1,0,8
387.913,7,-1,0,7
387.914,6,0,1,9
387.915,7,0,2,8
387.915,7,1,0,5
387.916,5,1,0,3
387.916,6,4,2,2
387.917,5,6,4,3
387.917,4,6,4,2
387.918,3,7,4,0
387.918,2,9,6,-1
387.919,0,9,8,-1
387.92,0,9,6,-4
387.92,-3,5,3,-6
387.921,-4,5,3,-5
387.921,-3,5,4,-4
387.922,-2,5,2,-5
387.922,-3,2,0,-4
387.923,-2,1,0,-3
387.924,0,2,1,0
387.924,2,6,4,2
387.925,4,5,3,3
387.925,4,4,3,4
387.926,4,4,4,5
387.927,6,5,4,6
387.927,5,2,3,5
387.928,4,1,2,4
387.928,4,0,0,4
387.929,4,0,0,4
387.929,4,0,0,4
387.93,5,0,0,4
387.931,5,1,2,7
387.931,6,2,3,8
387.932,6,1,1,6
387.932,3,-3,-1,5
387.933,4,-4,-3,5
387.933,5,-3,-3,4
387.934,4,-1,-2,6
387.935,8,2,1,7
387.935,10,6,4,8
387.936,10,7,5,6
387.936,7,5,2,2
387.937,4,5,2,0
387.938,3,5,3,1
387.938,3,7,4,-1
387.939,0,6,2,-4
387.939,0,8,4,-5
387.94,-1,8,6,-3
387.94,-1,9,6,-4
387.941,-2,8,6,-3
387.941,-3,6,5,-4
387.942,-3,4,3,-4
387.943,-2,4,3,-3
387.943,-1,2,2,0
387.944,0,1,1,0
387.944,0,2,1,0
387.945,2,4,3,2
387.945,3,4,4,4
387.946,3,3,2,3
387.947,3,2,1,4
387.947,4,1,2,4
387.948,4,2,2,6
387.948,6,2,1,4
387.949,5,0,0,3
387.95,4,0,0,4
387.95,5,2,1,6
387.951,7,1,1,6
387.951,6,2,0,5
387.952,5,0,0,5
387.952,5,-1,-1,6
387.953,5,-2,-3,5
387.954,7,0,-2,4
387.954,6,0,1,8
387.955,8,3,4,9
387.955,8,3,4,7
387.956,8,4,2,3
387.956,4,3,0,0
387.957,3,4,3,0
387.958,2,5,3,0
387.958,2,8,5,0
387.959,2,9,5,-2
387.959,0,9,6,-4
387.96,-1,7,5,-4
387.96,-2,6,3,-7
387.961,-4,5,3,-6
387.962,-3,5,4,-4
387.962,-1,7,5,-2
387.963,-1,3,2,-1
387.963,-1,2,2,0
387.964,2,5,5,2
387.964,1,4,4,2
387.965,1,3,3,3
387.966,3,3,3,5
387.966,5,2,1,4
387.967,4,0,0,3
387.967,3,1,0,4
387.968,4,1,0,4
387.968,4,1,1,3
387.969,4,0,0,3
387.97,4,1,0,3
387.97,5,2,2,5
387.971,6,3,3,5
387.971,6,1,0,4
387.972,3,-1,-1,4
387.973,4,-1,0,8
387.973,7,0,1,8
387.974,8,0,2,9
387.974,8,1,1,8
387.975,8,2,2,7
387.975,6,3,0,4
387.976,6,5,2,3
387.977,4,4,2,0
387.977,2,4,4,0
387.978,2,5,3,0
387.978,2,6,3,-2
387.979,0,6,3,-4
387.979,0,8,4,-5
387.98,0,8,3,-4
387.981,0,8,3,-5
387.981,-1,7,5,-3
387.982,-1,7,4,-3
387.982,-2,4,3,-2
387.983,-1,3,4,0
387.983,0,4,4,1
387.984,1,4,4,2
387.985,1,3,3,1
387.985,1,3,4,3
387.986,2,3,4,4
387.986,2,1,3,5
387.987,3,0,1,3
387.987,2,1,2,5
387.988,5,1,1,5
387.989,5,0,-1,2
387.989,4,0,-2,3
387.99,4,0,0,5
387.99,7,3,2,7
387.991,7,3,1,6
387.991,7,1,0,6
387.992,5,-1,-1,5
387.993,5,-1,0,6
387.993,7,0,0,6
387.994,6,0,0,7
387.994,7,1,2,8
387.995,9,4,4,7
387.995,7,3,3,5
387.996,5,2,1,2
387.997,3,3,0,0
387.997,2,4,1,0
387.998,3,7,4,0
387.998,2,6,1,-4
387.999,0,7,0,-7
388,-1,7,2,-7
388,0,8,5,-3
388.001,1,11,7,-2
388.001,0,11,8,0
388.002,2,9,7,-1
388.002,0,4,0,-5
388.003,-3,2,1,-2
388.004,-2,2,3,0
388.004,0,4,6,3
388.005,0,3,8,5
388.005,1,3,9,8
388.006,2,0,3,4
388.006,0,-1,-1,0
388.007,0,-3,-1,1
388.008,1,0,0,3
388.008,3,0,1,4
388.009,4,0,1,5
388.009,5,0,0,6
388.01,7,2,1,6
388.01,8,3,1,5
388.011,7,1,-2,2
388.012,5,0,-3,2
388.012,5,-1,-4,5
388.013,8,0,-2,6
388.013,8,1,1,8
388.014,8,2,2,9
388.014,10,4,4,9
388.015,9,4,4,7
388.016,8,4,2,3
388.016,5,5,2,1
388.017,3,5,3,1
388.017,3,6,5,0
388.018,2,7,7,0
388.018,0,7,5,-2
388.019,-3,5,4,-5
388.02,-4,4,2,-5
388.02,-2,6,3,-5
388.021,-2,5,2,-5
388.021,-2,5,3,-4
388.022,-2,6,5,-2
388.022,-1,4,4,0
388.023,0,3,4,1
388.024,1,4,2,0
388.024,0,2,2,0
388.025,0,3,3,3
388.025,3,4,4,4
388.026,4,5,4,4
388.026,4,2,2,3
388.027,3,1,1,3
388.028,3,0,1,4
388.028,4,1,2,7
388.029,6,3,3,7
388.029,6,1,2,6
388.03,4,0,1,5
388.03,4,0,0,4
388.031,5,0,0,4
388.032,3,-2,-2,3
388.032,3,-4,-3,4
388.033,5,-2,-4,4
388.033,7,0,-1,5
388.034,8,2,1,9
388.035,10,5,7,12
388.035,11,7,7,9
388.036,9,6,4,5
388.036,4,3,2,1
388.037,1,2,0,0
388.037,1,2,0,-2
388.038,0,6,3,-1
388.039,1,7,3,-3
388.039,0,8,4,-5
388.04,0,8,4,-5
388.04,-1,9,4,-6
388.041,-2,7,5,-4
388.041,-1,8,7,-1
388.042,0,6,5,-2
388.043,-1,2,2,-1
388.043,-1,2,2,0
388.044,1,2,0,0
388.044,0,1,0,0
388.045,2,3,1,2
388.045,4,4,3,3
388.046,4,2,1,3
388.047,5,3,0,2
388.047,4,4,3,5
388.048,6,5,7,8
388.048,6,0,1,5
388.049,3,0,-2,3
388.05,4,0,0,5
388.05,6,3,5,7
388.051,5,2,5,7
388.051,5,1,3,6
388.052,1,-3,0,5
388.052,1,-6,-4,5
388.053,3,-5,-2,6
388.053,6,-2,-2,7
388.054,6,0,0,6
388.055,8,3,2,6
388.055,7,5,4,6
388.056,6,5,3,2
388.056,4,4,2,1
388.057,4,5,3,2
388.058,4,6,4,1
388.058,5,8,4,0
388.059,2,8,4,-2
388.059,0,7,3,-6
388.06,-3,5,1,-8
388.06,-3,6,2,-6
388.061,-2,7,5,-4
388.062,-2,7,5,-3
388.062,-1,6,4,-2
388.063,-2,3,2,-1
388.063,0,3,2,0
388.064,1,6,5,2
388.064,2,5,5,4
388.065,3,4,5,5
388.066,5,4,4,5
388.066,4,1,1,3
388.067,2,-1,-2,1
388.067,1,0,0,3
388.068,4,0,1,5
388.068,5,1,2,7
388.069,7,2,1,6
388.07,7,1,1,5
388.07,5,1,1,5
388.071,4,0,1,6
388.071,5,0,0,6
388.072,6,0,0,6
388.072,6,-2,-2,5
388.073,5,-1,-1,5
388.074,5,-1,0,7
388.074,6,0,1,7
388.075,9,4,2,5
388.075,7,4,3,5
388.076,6,5,3,3
388.076,5,5,1,0
388.077,3,5,2,0
388.078,2,6,4,0
388.078,1,8,5,-1
388.079,1,10,6,-3
388.079,-1,8,6,-4
388.08,-1,8,6,-3
388.08,0,8,5,-4
388.081,-1,6,4,-4
388.082,-3,4,2,-4
388.082,-2,3,1,-3
388.083,-2,2,1,-1
388.083,0,4,4,1
388.084,1,3,3,1
388.084,1,2,3,3
388.085,2,3,3,3
388.086,4,4,4,5
388.086,5,2,0,2
388.087,3,0,0,2
388.087,2,2,2,2
388.088,3,1,3,6
388.089,5,3,4,7
388.089,6,3,3,6
388.09,4,0,2,6
388.09,5,0,0,4
388.091,4,0,-1,4
388.091,5,0,0,6
388.092,5,-1,1,8
388.093,7,-1,0,9
388.093,8,-1,-1,5
388.094,6,0,0,8
388.094,7,1,0,5
388.095,5,2,1,4
388.095,6,3,1,2
388.096,5,4,2,2
388.096,5,5,1,0
388.097,3,4,0,-2
388.098,2,8,3,-2
388.098,3,11,9,0
388.099,3,10,6,-1
388.099,2,9,6,-2
388.1,0,8,5,-4
388.101,-4,5,3,-5
388.101,-3,5,5,-3
388.102,-1,5,3,-3
388.102,-2,1,0,-3
388.103,-1,2,0,-3
388.103,-1,1,0,0
388.104,2,4,4,2
388.105,5,6,6,5
388.105,6,6,5,4
388.106,5,5,4,4
388.106,4,4,4,4
388.107,2,1,2,3
388.107,3,1,2,4
388.108,4,2,2,5
388.109,3,0,1,4
388.109,3,-2,-3,2
388.11,3,-1,-1,3
388.11,4,0,0,5
388.111,6,0,2,8
388.112,6,-1,1,8
388.112,5,0,3,10
388.113,6,-2,0,10
388.113,7,-5,-5,6
388.114,7,0,-1,6
388.114,9,4,1,5
388.115,7,4,2,3
388.116,4,2,-1,0
388.116,3,5,2,2
388.117,5,9,8,5
388.117,7,10,9,5
388.118,7,14,12,3
388.118,4,11,6,-5
388.119,-4,2,-1,-13
388.119,-11,0,-1,-10
388.12,-7,2,0,-9
388.121,-5,3,1,-5
388.121,0,5,1,-3
388.122,0,3,-4,-7
388.122,0,3,-2,-1
388.123,6,10,8,7
388.124,10,13,12,8
388.124,6,7,10,9
388.125,5,4,9,9
388.125,4,1,5,5
388.126,0,-3,0,2
388.126,0,-4,-3,0
388.127,0,-4,-5,0
388.128,3,-1,-4,1
388.128,7,3,0,3
388.129,10,12,9,7
388.129,8,9,6,3
388.13,3,2,2,3
388.13,4,1,1,5
388.131,6,0,0,4
388.132,2,-6,-7,1
388.132,1,-8,-9,1
388.133,4,-3,0,10
388.133,12,4,7,16
388.134,14,7,8,11
388.134,9,5,3,1
388.135,1,4,4,-2
388.136,-2,4,3,-5
388.136,-4,4,6,1
388.137,1,6,5,1
388.137,4,5,-1,-7
388.138,-3,4,0,-7
388.138,-2,8,6,-1
388.139,1,10,10,3
388.14,3,8,8,4
388.14,4,7,4,-1
388.141,1,4,5,2
388.141,3,4,2,0
388.142,2,5,4,0
388.142,0,-1,-3,-5
388.143,-4,-6,-10,-7
388.144,-3,-3,-2,0
388.144,2,1,2,6
388.145,7,5,5,8
388.145,7,3,2,5
388.146,6,3,5,12
388.146,15,9,6,11
388.147,13,8,1,0
388.148,2,4,0,-4
388.148,-1,2,-3,-10
388.149,-7,1,0,-3
388.149,0,7,8,4
388.15,4,9,10,4
388.151,1,1,2,0
388.151,-3,-3,0,2
388.152,-1,-6,-1,3
388.152,0,-6,-4,3
388.153,3,-2,-1,5
388.153,4,-4,-5,4
388.154,6,-2,0,13
388.155,15,7,10,24
388.155,25,10,8,21
388.156,22,8,4,15
388.156,19,6,2,14
388.157,16,4,0,9
388.157,11,1,-4,0
388.158,4,1,-7,-11
388.159,-6,-1,-5,-12
388.159,-10,-2,-5,-17
388.16,-14,-2,0,-9
388.16,-7,5,7,-3
388.161,-4,11,15,1
388.161,-5,7,11,-2
388.162,-4,12,15,-2
388.163,-1,21,23,1
388.163,2,21,17,-3
388.164,-1,15,11,-7
388.164,-9,3,0,-10
388.165,-11,-4,-5,-9
388.165,-5,2,3,2
388.166,4,5,4,3
388.167,1,-5,-8,-1
388.167,0,-4,-5,2
388.169,4,-1,-1,3
388.169,3,-1,-1,4
388.169,4,0,0,7
388.169,10,4,5,14
388.17,18,12,13,20
388.171,21,17,16,19
388.171,18,10,8,12
388.172,10,0,-4,2
388.172,1,-11,-12,-3
388.173,-6,-17,-14,-1
388.173,-3,-17,-16,0
388.174,2,-10,-11,3
388.175,8,-6,-13,3
388.175,11,-2,-10,4
388.176,15,5,-2,8
388.176,16,10,2,5
388.177,11,14,14,13
388.177,10,15,22,18
388.178,9,10,12,4
388.179,0,9,8,-3
388.179,-2,11,12,-3
388.18,-3,10,11,-4
388.18,-5,6,3,-12
388.181,-8,8,4,-12
388.182,-3,19,16,-3
388.182,-1,16,14,-6
388.183,-11,0,-4,-16
388.183,-18,-10,-10,-13
388.184,-8,-2,-1,-2
388.184,2,7,6,1
388.185,3,9,5,0
388.186,0,6,3,0
388.186,2,7,7,9
388.187,11,8,5,11
388.187,8,-1,-4,2
388.188,3,-3,-2,5
388.188,7,1,1,5
388.189,4,-1,-3,-5
388.19,-5,-4,0,1
388.19,1,2,7,8
388.191,5,2,5,8
388.191,3,0,7,17
388.192,13,5,10,21
388.192,16,3,3,12
388.193,8,-2,0,7
388.194,1,-9,-8,1
388.194,-1,-12,-13,-4
388.195,-2,-7,-7,0
388.195,5,5,2,4
388.196,10,14,11,11
388.196,15,18,15,11
388.197,15,19,15,9
388.198,12,16,11,4
388.198,5,7,2,-1
388.199,0,1,-5,-10
388.199,-6,-2,-7,-14
388.2,-9,-1,-5,-11
388.2,-7,0,-1,-6
388.201,-5,0,2,1
388.202,0,-1,2,8
388.202,7,2,6,15
388.203,13,2,-1,2
388.203,0,-7,-10,-8
388.204,-4,-8,-13,-10
388.204,-2,-1,-8,-8
388.205,0,3,0,-4
388.206,-1,0,0,0
388.206,3,9,19,26
388.207,25,21,24,27
388.207,23,17,12,9
388.208,9,8,5,2
388.208,3,6,5,1
388.209,5,14,10,0
388.21,1,12,9,-7
388.21,-13,-9,-10,-13
388.211,-14,-14,-9,0
388.211,0,-8,-5,7
388.212,8,-3,-2,11
388.213,11,-2,0,17
388.213,13,-7,-6,14
388.214,15,-4,-4,10
388.214,12,0,0,10
388.215,12,5,6,16
388.215,16,9,6,10
388.216,12,6,1,1
388.217,6,9,5,1
388.217,8,16,11,-2
388.218,0,12,6,-14
388.218,-11,9,5,-19
388.219,-15,13,14,-13
388.219,-13,13,14,-9
388.22,-15,0,1,-14
388.221,-20,-15,-13,-15
388.221,-13,-9,-6,-2
388.222,3,4,4,6
388.222,8,6,2,4
388.223,8,7,3,6
388.223,12,14,12,11
388.224,15,14,9,6
388.225,8,8,6,4
388.225,5,3,2,3
388.226,5,0,-3,-1
388.226,1,0,0,3
388.227,4,2,1,1
388.227,3,3,2,0
388.228,1,4,4,2
388.229,2,4,4,4
388.229,5,3,-1,0
388.23,1,-4,-7,-2
388.23,0,-5,-4,6
388.231,7,-3,0,17
388.231,17,0,0,18
388.232,17,-2,-5,8
388.233,8,-3,-1,10
388.233,8,-1,1,11
388.234,10,0,1,9
388.234,8,1,1,8
388.235,9,5,4,8
388.236,11,7,2,1
388.236,4,2,-5,-10
388.237,-5,2,2,-3
388.237,0,11,14,6
388.238,6,12,8,-3
388.238,-1,10,9,0
388.239,0,8,8,-1
388.24,-3,2,-2,-15
388.24,-14,-4,-8,-19
388.241,-16,0,3,-5
388.241,-2,8,10,4
388.242,5,12,11,6
388.242,9,13,11,7
388.243,7,9,5,0
388.244,0,2,0,-5
388.244,-4,-1,-1,-4
388.245,-2,0,2,0
388.245,2,6,7,6
388.246,6,6,5,6
388.246,6,3,0,3
388.247,4,1,0,4
388.248,6,0,0,8
388.248,8,0,-1,6
388.249,7,-1,0,10
388.249,10,1,1,11
388.25,11,0,0,9
388.25,9,-1,-5,-1
388.251,0,-5,-9,-9
388.252,-8,-9,-8,-9
388.252,-10,-5,2,7
388.253,4,2,11,23
388.253,19,6,8,21
388.254,19,10,8,12
388.254,12,11,10,7
388.255,4,7,7,0
388.256,-2,1,0,-5
388.256,-4,-2,-7,-8
388.257,-2,0,-7,-7
388.257,2,10,3,-3
388.258,3,14,7,-4
388.258,0,12,9,-3
388.259,0,11,8,-2
388.26,2,14,11,0
388.26,3,15,13,0
388.261,1,11,9,-2
388.261,-4,1,0,-7
388.262,-6,0,1,-3
388.262,-1,5,7,2
388.263,2,4,2,-2
388.264,-2,0,-2,-4
388.264,-5,-3,-4,-4
388.265,-3,-2,-2,-1
388.265,0,0,2,8
388.266,7,0,2,16
388.267,13,-3,-3,13
388.267,14,-2,-5,6
388.268,6,-6,-9,-2
388.268,-1,-7,-4,6
388.269,7,0,3,18
388.269,19,7,3,12
388.27,17,11,6,7
388.271,11,11,8,7
388.271,7,6,5,4
388.272,5,6,4,1
388.272,3,5,5,1
388.273,1,5,4,-3
388.273,-3,3,3,-4
388.274,-5,1,5,0
388.275,-6,-5,0,-1
388.275,-5,-5,-2,-1
388.276,0,3,7,8
388.276,8,8,10,10
388.277,7,4,0,0
388.277,4,4,-2,-6
388.278,0,6,2,-4
388.279,1,8,3,-1
388.279,2,9,4,-2
388.28,3,11,5,-4
388.28,1,11,6,-5
388.281,-1,9,6,-2
388.282,0,7,6,0
388.282,0,1,2,2
388.283,0,-3,-2,-1
388.283,-3,-7,-6,-6
388.284,-7,-8,-5,-2
388.284,-1,-1,0,3
388.285,6,6,8,11
388.286,16,18,18,18
388.286,21,24,21,17
388.287,14,14,14,12
388.287,8,1,0,1
388.288,-1,-8,-6,-1
388.288,-4,-12,-10,-3
388.289,-3,-10,-12,-6
388.29,-3,-2,-3,-2
388.29,0,2,5,8
388.291,7,3,5,11
388.291,9,0,-1,7
388.292,6,-5,-5,9
388.292,10,-2,-6,5
388.293,8,-3,-7,2
388.294,6,-2,-6,0
388.294,5,0,-6,-2
388.295,3,3,0,0
388.295,5,10,11,8
388.296,11,15,15,12
388.296,13,16,19,17
388.297,13,15,17,10
388.298,4,6,8,3
388.298,0,2,0,-5
388.299,-5,-1,-7,-17
388.299,-13,-2,-5,-15
388.3,-9,2,-1,-12
388.3,-6,6,5,-3
388.301,0,10,8,2
388.302,6,13,10,3
388.302,4,8,5,-2
388.303,-3,2,-1,-8
388.303,-6,0,0,-6
388.304,-4,3,6,4
388.304,5,8,9,8
388.305,8,6,4,6
388.306,7,7,6,7
388.306,7,4,5,7
388.307,5,0,0,4
388.307,3,-3,-4,1
388.308,2,-4,-5,2
388.308,5,-2,-3,3
388.309,6,0,-3,1
388.31,4,-1,-3,0
388.31,4,-1,-4,0
388.311,3,3,6,12
388.311,12,5,9,16
388.312,12,2,4,9
388.312,5,0,1,7
388.313,4,-3,-4,0
388.314,0,-4,-6,-2
388.314,-1,-1,0,4
388.315,6,6,4,4
388.315,7,9,7,6
388.316,8,12,13,9
388.317,8,10,11,7
388.317,6,7,4,-1
388.318,0,8,7,0
388.318,0,9,8,-3
388.319,-3,8,7,-6
388.319,-3,8,4,-7
388.32,-4,6,3,-4
388.321,-2,3,-1,-8
388.321,-7,-7,-14,-18
388.322,-9,-7,-15,-14
388.322,-3,2,0,0
388.323,6,9,6,6
388.323,9,11,12,11
388.324,11,14,21,20
388.325,12,10,12,10
388.325,4,0,-1,0
388.326,-2,-4,-3,0
388.326,-2,-3,0,3
388.327,2,0,2,7
388.327,7,4,5,9
388.328,7,1,1,4
388.329,2,-1,0,5
388.329,4,-1,-1,4
388.33,5,0,2,10
388.33,11,1,-1,4
388.331,4,-3,-6,0
388.332,1,-6,-6,4
388.332,6,-1,-2,7
388.333,9,2,2,9
388.333,9,2,1,5
388.334,6,4,6,7
388.334,5,5,5,5
388.335,4,5,3,3
388.335,4,6,5,2
388.336,4,9,7,2
388.337,5,13,10,2
388.337,3,9,5,-3
388.338,-2,2,0,-6
388.338,-2,5,2,-5
388.339,-2,5,0,-7
388.339,-3,6,4,-3
388.34,0,9,7,0
388.341,0,7,3,-6
388.341,-4,2,-1,-7
388.342,-5,0,0,-3
388.342,-1,2,3,3
388.343,4,5,5,4
388.344,4,6,5,3
388.344,2,1,0,-1
388.345,-1,0,1,3
388.345,5,6,7,9
388.346,8,7,6,7
388.346,6,4,3,4
388.347,3,0,0,3
388.347,3,0,-1,4
388.348,5,1,2,5
388.349,6,4,4,8
388.349,9,6,6,8
388.35,7,2,1,4
388.35,4,-2,-3,1
388.351,0,-8,-8,0
388.352,0,-8,-10,-4
388.352,0,-3,-3,1
388.353,3,4,7,12
388.353,10,7,11,18
388.354,15,5,5,13
388.354,11,1,0,7
388.355,7,0,-3,1
388.356,4,3,0,1
388.356,6,8,2,0
388.357,5,10,3,-5
388.357,1,12,8,0
388.358,3,13,7,-5
388.358,0,11,7,-4
388.359,-2,7,2,-14
388.36,-14,-1,-1,-15
388.36,-16,0,5,-3
388.361,-4,6,10,4
388.361,3,11,13,7
388.362,4,9,9,6
388.362,5,5,5,4
388.363,1,1,0,0
388.364,0,-2,-4,-2
388.364,-1,-4,-5,-2
388.365,-1,-2,-3,0
388.365,2,2,0,1
388.366,4,5,2,3
388.367,7,9,9,10
388.367,10,5,5,11
388.368,13,4,5,18
388.368,19,2,0,13
388.369,15,-1,-7,7
388.369,10,-5,-10,0
388.37,1,-8,-9,-1
388.371,-2,-10,-8,1
388.371,-1,-10,-5,4
388.372,4,0,5,10
388.372,9,11,13,8
388.373,2,3,3,0
388.373,-3,-3,0,6
388.374,6,4,7,14
388.375,12,6,3,3
388.375,4,6,2,-4
388.376,0,9,7,-3
388.376,-1,11,9,-1
388.377,1,12,10,0
388.377,2,11,8,-1
388.378,2,11,6,-1
388.378,2,12,6,-3
388.379,2,10,4,-5
388.38,0,7,2,-6
388.38,-1,4,0,-8
388.381,-4,3,1,-5
388.381,-3,2,3,0
388.382,0,0,0,-1
388.383,-1,0,-2,-5
388.383,-5,-2,-2,-4
388.384,-5,-1,1,1
388.384,0,2,5,7
388.385,6,6,9,10
388.385,8,6,5,6
388.386,6,3,2,5
388.387,8,7,4,6
388.387,9,8,7,8
388.388,7,2,1,5
388.388,6,1,1,5
388.389,5,0,0,6
388.389,4,-3,-4,1
388.39,1,-4,-4,2
388.391,2,-3,-4,3
388.391,3,-1,1,11
388.392,11,2,2,8
388.392,7,1,0,4
388.393,2,0,1,9
388.393,9,4,2,3
388.394,4,3,2,4
388.395,4,4,5,9
388.395,7,2,3,6
388.396,6,2,1,2
388.396,4,3,2,1
388.397,4,8,5,0
388.397,2,7,2,-7
388.398,-3,5,1,-8
388.399,-2,8,5,-4
388.399,0,12,8,-3
388.4,0,11,6,-2
388.4,1,10,7,-2
388.401,0,5,0,-8
388.401,-6,-1,-2,-6
388.402,-5,-1,1,1
388.403,1,2,2,1
388.403,0,0,0,0
388.404,1,3,4,4
388.404,4,6,6,5
388.405,5,6,5,5
388.405,5,3,2,3
388.406,3,1,0,0
388.407,0,0,0,3
388.407,4,2,3,6
388.408,5,2,2,4
388.408,4,-1,-1,5
388.409,7,0,0,6
388.41,10,4,2,7
388.41,10,6,3,6
388.411,4,-2,-3,2
388.411,0,-9,-6,3
388.412,2,-5,-1,9
388.412,9,2,6,14
388.413,11,2,4,11
388.414,10,1,1,6
388.414,5,0,-1,3
388.415,5,3,4,5
388.415,8,9,8,5
388.416,6,6,2,-2
388.417,0,2,-2,-8
388.417,-2,5,1,-6
388.418,-2,7,6,0
388.418,2,12,11,2
388.419,2,10,7,-1
388.419,0,6,1,-7
388.42,-5,2,0,-8
388.42,-4,2,-1,-8
388.421,-5,1,-2,-8
388.422,-3,4,4,2
388.422,7,13,10,6
388.423,6,9,10,5
388.423,0,2,5,3
388.424,0,1,4,3
388.425,0,2,3,4
388.425,2,1,1,2
388.426,3,2,2,4
388.426,5,3,0,1
388.427,3,2,0,1
388.427,1,0,0,2
388.428,2,0,0,3
388.428,4,1,0,4
388.429,5,1,1,4
388.43,5,1,2,7
388.43,5,0,0,6
388.431,4,-3,-2,6
388.431,4,-3,-1,9
388.432,9,1,0,9
388.433,9,1,0,8
388.433,7,0,0,7
388.434,7,3,4,8
388.434,7,4,5,6
388.435,6,6,3,2
388.435,4,4,0,-2
388.436,2,4,1,0
388.437,4,6,2,-1
388.437,3,9,5,-2
388.438,2,13,12,0
388.438,1,12,14,2
388.439,-1,5,3,-6
388.439,-5,4,1,-7
388.44,-5,4,2,-6
388.441,-5,2,0,-8
388.441,-6,0,-3,-7
388.442,-4,0,-2,-5
388.442,-1,3,3,1
388.443,3,7,7,6
388.443,6,7,8,8
388.444,6,3,1,1
388.445,0,0,1,1
388.445,1,1,3,5
388.446,4,2,3,7
388.446,8,4,4,9
388.447,10,5,5,10
388.447,9,1,0,7
388.448,5,-1,-2,3
388.449,2,-5,-4,2
388.449,2,-5,-7,-2
388.45,-1,-3,-2,4
388.45,5,0,0,7
388.451,8,0,0,7
388.451,8,2,5,16
388.452,17,9,9,16
388.453,15,8,4,7
388.453,9,2,-4,-4
388.454,0,2,1,2
388.454,5,5,2,1
388.455,1,1,-1,-5
388.455,-3,2,2,0
388.456,1,5,6,3
388.457,5,10,9,4
388.457,4,8,7,0
388.458,-1,6,5,-2
388.458,-3,5,6,-3
388.459,-1,8,7,-4
388.459,-1,9,5,-8
388.46,-8,2,0,-10
388.461,-8,0,-3,-11
388.461,-6,2,0,-4
388.462,0,5,2,0
388.462,4,8,5,2
388.463,6,8,6,3
388.464,4,5,4,4
388.464,4,5,4,4
388.465,6,7,5,4
388.465,5,5,5,5
388.466,4,1,0,3
388.466,3,-1,-1,2
388.467,3,0,0,5
388.468,6,3,6,10
388.468,8,2,5,9
388.469,5,0,0,4
388.469,2,-3,-4,1
388.47,2,-3,-4,2
388.47,4,-2,-5,3
388.471,4,-6,-6,4
388.472,6,-2,-1,9
388.472,10,3,5,13
388.473,12,3,6,14
388.473,13,5,4,9
388.474,9,2,3,5
388.474,5,3,3,3
388.475,3,4,5,2
388.476,1,2,1,-1
388.476,-2,0,0,-3
388.477,-1,6,5,-1
388.477,0,8,6,-1
388.478,-1,6,1,-6
388.479,-2,7,2,-6
388.479,0,11,6,-3
388.48,0,11,8,-1
388.48,0,8,6,-2
388.481,-2,5,3,-5
388.481,-3,3,1,-3
388.482,-2,2,1,-2
388.482,0,2,1,0
388.483,0,0,-1,-1
388.484,3,3,1,2
388.484,5,5,2,5
388.485,8,5,4,5
388.485,7,5,3,4
388.486,6,4,2,4
388.487,5,2,2,7
388.487,7,4,3,7
388.488,6,2,0,4
388.488,3,0,-3,1
388.489,4,0,0,4
388.489,6,1,-2,2
388.49,4,0,-2,3
388.491,3,-2,-3,4
388.491,4,-2,-1,7
388.492,8,2,4,12
388.492,12,6,8,13
388.493,9,3,5,10
388.493,6,1,5,8
388.494,2,0,5,6
388.495,0,1,7,6
388.495,0,0,7,5
388.496,-1,0,2,0
388.496,-3,-2,-1,-6
388.497,-4,1,0,-6
388.497,-2,4,1,-6
388.498,0,7,2,-5
388.499,0,10,3,-4
388.499,3,11,2,-6
388.5,1,8,-1,-8
388.5,2,9,0,-5
388.501,5,12,3,-2
388.501,7,14,7,2
388.502,8,14,10,5
388.503,6,9,10,5
388.503,2,3,6,5
388.504,0,-1,1,3
388.504,0,-2,0,2
388.505,0,-2,1,3
388.505,0,-1,3,5
388.506,0,-1,6,8
388.507,-1,-1,7,7
388.507,-2,-6,0,2
388.508,-4,-8,-8,-3
388.508,-2,-7,-12,-6
388.509,3,0,-5,-1
388.509,11,11,2,4
388.51,14,12,0,3
388.511,12,7,0,5
388.511,14,5,-1,7
388.512,13,5,1,10
388.512,13,1,-3,7
388.513,13,6,4,12
388.513,14,9,10,14
388.514,11,8,11,10
388.515,4,3,9,6
388.515,-3,-2,7,4
388.516,-7,-5,4,1
388.516,-6,-1,7,1
388.517,-6,-1,3,-3
388.517,-6,0,0,-9
388.518,-9,0,0,-8
388.519,-7,4,7,0
388.519,0,8,9,0
388.52,0,5,0,-7
388.52,-1,3,-6,-12
388.521,-3,0,-9,-12
388.522,-1,0,-8,-7
388.522,6,8,-3,-1
388.523,14,17,6,6
388.523,18,18,7,5
388.524,15,16,9,8
388.524,11,13,11,10
388.525,9,9,7,7
388.526,8,7,6,7
388.526,6,3,0,2
388.527,2,0,-4,-1
388.527,2,0,-7,-3
388.528,2,1,-2,-1
388.528,1,0,-2,-1
388.529,0,0,1,2
388.53,0,0,6,6
388.53,-4,-9,0,5
388.531,-4,-12,-1,10
388.531,2,-6,3,14
388.532,8,0,6,14
388.533,7,-1,4,13
388.533,8,1,4,9
388.534,7,2,1,5
388.534,6,4,4,4
388.535,4,4,1,0
388.535,2,5,5,1
388.536,2,7,8,2
388.537,3,10,10,3
388.537,2,12,13,2
388.538,0,12,12,0
388.538,-2,3,-2,-12
388.539,-8,-3,-12,-20
388.539,-11,-2,-9,-15
388.54,-6,2,-3,-9
388.541,-1,5,-2,-4
388.541,4,6,-5,-6
388.542,9,11,-1,0
388.542,13,20,14,10
388.543,14,17,18,14
388.543,11,11,12,10
388.544,8,6,8,7
388.545,6,5,6,5
388.545,2,0,0,0
388.546,-3,-5,-3,-1
388.546,-2,-4,-2,1
388.547,1,0,4,7
388.547,5,2,5,7
388.548,3,0,2,3
388.548,0,-6,-6,-3
388.549,-2,-4,-4,1
388.55,3,1,5,10
388.55,7,0,2,8
388.551,3,-7,-6,3
388.551,1,-8,-6,4
388.552,5,-3,0,10
388.553,10,3,8,17
388.553,14,7,13,16
388.554,9,3,9,11
388.554,4,0,4,4
388.555,0,0,2,1
388.555,-1,0,1,-1
388.556,-1,-1,-7,-9
388.557,0,3,-8,-14
388.557,-1,7,-4,-11
388.558,2,14,4,-2
388.558,9,22,13,3
388.559,12,22,14,3
388.559,8,17,9,0
388.56,2,11,5,-4
388.561,0,8,5,-3
388.561,-2,4,3,-2
388.562,-3,0,0,-3
388.562,-2,0,0,-1
388.563,-2,0,0,-1
388.564,-1,0,1,1
388.564,0,0,1,2
388.565,2,0,0,2
388.565,2,3,3,5
388.566,5,4,6,6
388.566,3,1,3,5
388.567,2,-1,0,3
388.568,1,-2,-2,2
388.568,3,0,0,6
388.569,7,4,5,9
388.569,7,3,3,6
388.57,4,-1,-1,4
388.57,3,-4,-2,4
388.571,5,-1,0,8
388.572,8,0,0,9
388.572,9,0,-3,4
388.573,6,-1,-3,4
388.573,9,4,2,7
388.574,10,6,4,8
388.574,10,8,5,4
388.575,6,7,4,1
388.575,3,5,2,-1
388.576,1,5,2,-2
388.577,1,8,6,-1
388.577,0,8,8,-1
388.578,0,7,4,-4
388.578,-1,9,7,-2
388.579,0,11,11,0
388.58,-2,6,6,-4
388.58,-4,5,4,-6
388.581,-7,2,6,-2
388.581,-6,-1,0,-4
388.582,-5,-2,0,-2
388.582,-3,1,5,3
388.583,0,0,4,4
388.584,2,0,2,2
388.584,1,0,-1,1
388.585,3,1,0,1
388.585,6,4,1,5
388.586,8,5,1,4
388.586,8,4,0,4
388.587,8,2,-3,2
388.588,8,3,0,5
388.588,10,5,2,7
388.589,9,4,1,6
388.589,9,3,0,6
388.59,8,3,0,6
388.59,7,2,5,11
388.591,6,0,6,11
388.592,4,-1,6,12
388.592,3,-4,5,11
388.593,4,-3,2,8
388.593,2,-3,-1,2
388.594,0,-5,-7,-5
388.595,-1,-3,-9,-7
388.595,0,1,-4,-4
388.596,5,7,0,-2
388.596,7,9,-2,-6
388.597,5,11,0,-5
388.597,7,20,14,5
388.598,11,23,20,7
388.599,9,18,13,0
388.599,1,11,8,-4
388.6,-4,3,0,-9
388.6,-8,0,-1,-10
388.601,-9,0,2,-4
388.601,-5,1,5,1
388.602,-2,2,5,3
388.603,0,1,3,0
388.603,0,0,0,0
388.604,0,0,2,2
388.604,2,1,2,4
388.605,3,3,3,4
388.605,4,3,6,8
388.606,4,2,5,7
388.607,4,1,5,7
388.607,2,-1,1,6
388.608,3,-3,-1,3
388.608,3,-1,-2,3
388.609,5,0,-2,2
388.609,5,-1,-6,0
388.61,6,0,-7,0
388.611,8,0,-7,2
388.611,11,2,-7,3
388.612,15,8,0,6
388.612,15,9,5,13
388.613,17,12,11,16
388.613,15,9,9,11
388.614,9,5,7,6
388.615,3,3,7,4
388.615,0,1,6,2
388.616,-4,-4,-2,-4
388.616,-5,-1,-2,-7
388.617,-4,2,0,-6
388.617,-1,8,6,-3
388.618,-1,9,9,-1
388.619,-3,6,7,-2
388.619,-2,7,7,-2
388.62,-2,5,3,-5
388.62,-2,3,-1,-8
388.621,-5,0,-1,-5
388.621,-2,2,0,-2
388.622,2,5,4,2
388.623,5,8,7,6
388.623,7,6,5,5
388.624,4,3,2,4
388.624,4,2,1,3
388.625,4,3,3,5
388.625,5,3,4,5
388.626,3,0,1,5
388.627,3,-1,0,4
388.627,4,0,0,5
388.628,5,1,1,7
388.628,8,4,1,5
388.629,7,1,0,4
388.63,4,-1,-2,2
388.63,1,-2,0,7
388.631,3,-3,0,9
388.631,6,-2,0,8
388.632,7,-2,-3,6
388.632,7,-1,-3,4
388.633,9,2,-1,5
388.634,9,5,3,6
388.634,10,8,5,6
388.635,8,10,8,6
388.635,6,9,7,3
388.636,3,5,3,-1
388.636,0,6,4,-3
388.637,-1,6,6,-3
388.638,-2,5,4,-5
388.638,-4,4,1,-7
388.639,-3,5,2,-8
388.639,-4,5,2,-6
388.64,-3,6,5,-3
388.64,-2,7,6,-1
388.641,0,5,5,1
388.642,0,4,4,0
388.642,1,3,2,0
388.643,1,1,1,0
388.643,1,4,4,4
388.644,4,4,3,4
388.644,4,3,4,5
388.645,2,0,2,4
388.646,1,-1,-1,1
388.646,0,-1,0,3
388.647,5,4,3,7
388.647,7,4,4,8
388.648,7,2,0,4
388.648,6,1,-1,3
388.649,6,1,0,4
388.65,7,1,-2,3
388.65,5,0,-1,5
388.651,6,-1,0,7
388.651,6,0,0,8
388.652,6,0,1,8
388.652,7,0,-1,6
388.653,7,2,-1,3
388.654,8,3,-1,1
388.654,8,7,2,3
388.655,6,7,5,4
388.655,6,8,5,3
388.656,5,11,15,8
388.656,3,10,12,3
388.657,0,4,2,-6
388.658,-6,2,0,-9
388.658,-6,3,0,-8
388.659,-5,5,2,-6
388.659,-4,5,3,-5
388.66,-3,5,3,-3
388.661,-1,4,3,-2
388.661,0,5,5,2
388.662,3,5,2,0
388.662,3,3,1,0
388.663,1,2,0,0
388.663,3,4,3,3
388.664,5,5,6,5
388.665,4,4,6,6
388.665,3,3,6,6
388.666,1,1,3,4
388.666,1,0,3,5
388.667,2,0,4,5
388.667,1,-2,0,3
388.668,1,-3,-3,1
388.669,3,-1,-2,3
388.669,7,2,0,5
388.67,8,3,0,6
388.67,7,-1,-2,6
388.671,7,0,1,9
388.671,9,2,3,11
388.672,9,0,2,9
388.673,9,0,-1,4
388.673,7,0,-2,3
388.674,6,3,0,3
388.674,6,6,5,4
388.675,6,8,5,3
388.675,4,5,2,0
388.676,2,5,1,-3
388.677,1,6,2,-4
388.677,0,8,3,-5
388.678,0,7,2,-5
388.678,0,9,6,-3
388.679,-1,9,8,-2
388.679,-1,7,7,-2
388.68,-2,5,4,-3
388.681,-3,2,2,-3
388.681,-3,2,2,-1
388.682,-1,2,2,0
388.682,0,2,4,2
388.683,2,4,3,3
388.684,3,4,4,4
388.684,3,1,2,4
388.685,3,0,1,3
388.685,4,1,1,4
388.686,4,1,1,5
388.686,5,2,2,6
388.687,6,1,2,6
388.688,5,0,0,4
388.688,4,0,1,5
388.689,5,0,0,4
388.689,4,0,-3,2
388.69,4,0,0,6
388.69,6,0,4,11
388.691,7,-1,0,8
388.691,7,0,-1,5
388.692,5,-1,-2,4
388.693,8,2,0,6
388.693,8,3,1,5
388.694,8,7,3,5
388.694,8,6,1,1
388.695,5,4,-3,-5
388.696,2,7,3,0
388.696,4,9,6,0
388.697,2,10,6,-1
388.697,1,10,6,-3
388.698,-1,9,6,-4
388.698,-2,9,7,-4
388.699,-4,5,5,-4
388.7,-4,4,5,-3
388.7,-2,6,9,1
388.701,-2,3,6,1
388.701,-3,-1,-1,-4
388.702,-3,0,-1,-3
388.702,-1,0,0,0
388.703,2,3,2,2
388.704,5,4,2,2
388.704,5,4,3,4
388.705,5,3,4,5
388.705,6,6,5,7
388.706,6,4,3,5
388.706,5,1,0,4
388.707,5,1,0,3
388.708,4,0,-2,3
388.708,4,0,0,4
388.709,5,0,0,6
388.709,6,2,0,6
388.71,7,0,-3,2
388.71,5,-2,-6,2
388.711,6,0,-2,5
388.712,10,3,3,9
388.712,11,6,6,11
388.713,11,8,12,13
388.713,8,3,4,4
388.714,2,0,0,0
388.714,0,0,0,-1
388.715,0,1,0,-1
388.716,0,3,3,0
388.716,1,6,6,0
388.717,0,6,5,-2
388.717,0,8,6,-3
388.718,-2,7,7,-2
388.719,-2,7,6,-3
388.719,-3,5,3,-4
388.72,-3,4,2,-4
388.72,-2,4,1,-4
388.721,-3,0,-2,-6
388.721,-1,2,0,0
388.722,3,7,5,3
388.723,6,7,5,4
388.723,5,5,3,3
388.724,4,4,3,4
388.724,4,2,3,5
388.725,5,3,2,4
388.725,5,4,5,7
388.726,5,2,4,7
388.727,3,0,2,7
388.727,2,-1,1,5
388.728,2,-2,0,4
388.728,2,-3,-2,3
388.729,3,-1,-2,2
388.729,3,0,-2,3
388.73,4,-3,-6,1
388.731,6,-2,-5,4
388.731,9,0,-6,3
388.732,9,1,-2,6
388.732,12,9,9,15
388.733,16,12,14,16
388.733,12,7,7,8
388.734,6,5,4,3
388.735,1,3,3,0
388.735,-2,0,0,-3
388.736,-3,0,2,-2
388.736,-1,5,6,0
388.737,0,8,8,-1
388.738,-1,7,4,-4
388.738,-2,4,0,-9
388.739,-3,6,1,-8
388.739,-3,7,2,-6
388.74,-1,7,6,-2
388.74,0,6,5,0
388.741,0,4,3,-1
388.741,0,1,-1,-3
388.742,1,4,3,1
388.743,4,10,13,10
388.743,5,6,9,8
388.744,2,0,2,3
388.744,1,0,-1,1
388.745,1,0,-1,1
388.746,3,0,0,2
388.746,3,0,0,3
388.747,4,2,3,7
388.747,5,1,3,7
388.748,5,1,0,6
388.748,5,0,-2,2
388.749,4,0,-1,3
388.75,5,0,-1,4
388.75,5,0,0,7
388.751,7,0,-1,6
388.751,8,0,0,6
388.752,7,0,2,9
388.752,9,4,6,12
388.753,9,3,3,7
388.754,6,3,2,3
388.754,4,3,0,1
388.755,3,2,0,-1
388.755,2,4,0,-1
388.756,3,7,4,0
388.756,4,9,5,-2
388.757,1,9,5,-5
388.758,-3,7,4,-6
388.758,-2,8,6,-5
388.759,-2,8,6,-4
388.759,-3,6,3,-6
388.76,-4,3,2,-6
388.76,-4,2,2,-2
388.761,0,4,3,1
388.762,2,6,6,3
388.762,4,7,7,5
388.763,4,4,3,3
388.763,3,2,1,2
388.764,2,2,3,5
388.765,4,2,4,5
388.765,3,1,3,5
388.766,3,0,0,3
388.766,3,-1,-2,3
388.767,3,-1,-2,2
388.767,3,0,0,4
388.768,5,1,0,5
388.769,7,3,2,7
388.769,7,3,3,7
388.77,6,0,0,6
388.77,4,-3,-2,7
388.771,5,-2,-1,6
388.771,6,0,0,8
388.772,7,0,0,6
388.773,8,2,0,5
388.773,6,2,0,1
388.774,5,5,1,2
388.774,6,7,3,2
388.775,5,8,5,2
388.775,4,7,6,2
388.776,4,10,8,1
388.777,1,7,6,-2
388.777,-1,6,4,-4
388.778,-4,5,3,-5
388.778,-3,6,4,-5
388.779,-5,4,2,-5
388.779,-4,4,2,-6
388.78,-2,5,2,-4
388.781,-1,5,4,-1
388.781,0,3,2,0
388.782,1,3,3,0
388.782,1,3,3,2
388.783,3,3,3,2
388.783,4,3,0,2
388.784,5,4,3,5
388.785,6,4,4,6
388.785,6,3,5,7
388.786,4,2,4,6
388.786,4,1,2,5
388.787,4,0,0,3
388.788,2,-2,-3,1
388.788,2,-1,-5,0
388.789,4,0,-2,2
388.789,6,3,3,8
388.79,8,2,2,8
388.79,6,0,4,10
388.791,6,-1,0,8
388.791,6,0,0,7
388.792,6,-1,-1,5
388.793,5,0,-2,2
388.793,5,1,-1,1
388.794,5,5,2,3
388.794,6,7,5,3
388.795,7,9,7,3
388.796,5,10,11,5
388.796,4,10,10,2
388.797,0,4,3,-4
388.797,-3,3,2,-6
388.798,-3,3,1,-6
388.798,-3,6,2,-6
388.799,-4,4,3,-5
388.8,-3,6,5,-2
388.8,0,6,4,0
388.801,0,4,2,-1
388.801,0,2,0,-2
388.802,0,2,1,0
388.802,1,4,5,4
388.803,4,6,7,7
388.804,6,4,2,2
388.804,3,1,0,0
388.805,3,1,1,4
388.805,5,3,3,5
388.806,5,3,4,7
388.806,6,2,4,7
388.807,4,0,0,3
388.807,3,0,0,5
388.808,4,0,0,4
388.809,5,0,0,4
388.809,5,-1,-4,1
388.81,3,-3,-4,3
388.81,5,0,0,6
388.811,8,3,4,10
388.812,9,3,4,11
388.812,9,2,2,8
388.813,9,3,2,5
388.813,5,3,1,2
388.814,3,3,2,1
388.814,2,3,4,1
388.815,2,5,4,2
388.816,3,8,7,1
388.816,2,7,4,-2
388.817,-1,5,0,-7
388.817,-4,4,0,-7
388.818,-1,9,7,-1
388.818,1,10,5,-4
388.819,0,7,1,-6
388.82,-2,6,0,-6
388.82,-1,6,3,-2
388.821,0,5,4,2
388.821,2,5,7,3
388.822,2,5,6,4
388.822,2,2,2,1
388.823,1,0,-1,0
388.824,0,1,5,5
388.824,3,3,6,7
388.825,5,1,0,2
388.825,3,0,0,1
388.826,3,1,1,4
388.827,4,0,1,5
388.827,4,0,0,4
388.828,4,1,2,7
388.828,7,3,3,8
388.829,7,2,2,6
388.829,4,-1,-2,3
388.83,2,-5,-4,4
388.831,4,-2,-2,6
388.831,8,1,0,7
388.832,7,0,0,6
388.832,8,2,0,5
388.833,8,4,3,7
388.833,10,8,7,8
388.834,11,9,6,5
388.835,5,4,1,0
388.835,0,0,-1,-4
388.836,-1,3,2,-3
388.836,0,6,4,-3
388.837,0,9,7,-3
388.837,0,9,6,-3
388.838,-1,8,6,-5
388.839,-4,6,5,-5
388.839,-3,5,4,-4
388.84,-2,7,4,-3
388.84,-2,4,4,0
388.841,0,4,4,0
388.841,0,4,4,1
388.842,1,3,3,2
388.843,3,4,4,3
388.843,2,3,3,3
388.844,2,1,1,2
388.844,3,0,0,2
388.845,3,1,0,3
388.845,4,0,0,3
388.846,5,1,1,5
388.847,6,2,0,5
388.847,6,1,1,5
388.848,7,2,1,5
388.848,4,2,2,6
388.849,6,2,3,6
388.85,5,0,0,5
388.85,3,-4,-1,7
388.851,5,-1,3,11
388.851,8,0,4,10
388.852,6,-2,-1,5
388.852,4,-2,-1,4
388.853,5,0,0,3
388.854,5,4,1,1
388.854,5,5,0,-1
388.855,3,4,-2,-4
388.855,3,8,4,0
388.856,6,13,11,4
388.856,4,14,15,5
388.857,2,9,7,-2
388.857,-1,6,2,-6
388.858,-2,5,0,-8
388.859,-4,4,0,-9
388.859,-5,3,0,-8
388.86,-3,4,1,-4
388.86,0,5,3,1
388.861,3,4,1,0
388.861,3,5,2,0
388.862,2,4,3,2
388.863,2,5,6,6
388.863,5,5,7,8
388.864,6,4,5,6
388.864,4,1,1,3
388.865,2,-1,0,1
388.866,1,-1,-1,2
388.866,2,0,0,3
388.867,5,1,0,4
388.867,6,2,1,4
388.868,5,1,1,5
388.868,5,1,1,6
388.869,6,1,1,7
388.87,6,0,0,7
388.87,6,-1,0,7
388.871,5,-2,-1,5
388.871,5,-1,0,6
388.872,6,0,2,8
388.872,8,3,2,6
388.873,6,3,2,4
388.874,4,4,2,1
388.874,3,3,3,2
388.875,3,6,6,3
388.875,3,7,5,1
388.876,3,8,4,-2
388.876,0,7,2,-6
388.877,-1,6,3,-6
388.878,-1,7,4,-4
388.878,0,9,7,-2
388.879,-1,7,4,-4
388.879,-3,4,3,-4
388.88,-2,4,3,-3
388.881,-2,2,3,-1
388.881,0,3,3,1
388.882,1,5,5,3
388.882,2,3,4,3
388.883,3,2,2,3
388.883,3,2,1,3
388.884,3,2,3,5
388.884,4,1,0,4
388.885,4,1,0,3
388.886,4,0,0,4
388.886,5,2,2,6
388.887,6,2,1,5
388.887,6,2,1,4
388.888,4,0,0,3
388.888,5,1,0,5
388.889,5,0,0,5
388.89,5,-1,0,6
388.89,6,-1,0,7
388.891,6,0,1,8
388.891,7,0,0,7
388.892,7,1,0,5
388.893,6,0,0,5
388.893,7,4,3,4
388.894,7,7,5,4
388.894,6,7,4,1
388.895,3,3,0,-2
388.895,1,5,0,-3
388.896,2,8,5,0
388.897,2,10,7,-1
388.897,0,9,7,-2
388.898,-2,8,9,-1
388.898,-1,6,6,-3
388.899,-4,4,5,-4
388.899,-4,3,3,-4
388.9,-5,0,0,-3
388.901,-2,2,0,-2
388.901,0,1,0,-1
388.902,0,3,0,0
388.902,2,5,2,2
388.903,5,6,4,5
388.903,6,5,4,6
388.904,6,5,5,6
388.905,5,4,5,7
388.905,4,1,2,5
388.906,4,0,-1,3
388.906,3,-2,-4,1
388.907,4,0,-2,3
388.907,6,2,0,4
388.908,6,2,0,4
388.909,8,4,2,6
388.909,7,4,4,8
388.91,5,-1,0,7
388.91,4,-2,0,7
388.911,5,-1,0,6
388.912,6,0,0,6
388.912,7,2,3,7
388.913,7,2,1,3
388.913,3,0,0,1
388.914,5,4,0,0
388.914,4,5,0,-1
388.915,3,4,-2,-3
388.916,3,7,1,-2
388.916,5,11,6,-1
388.917,4,12,7,-1
388.917,3,15,13,2
388.918,2,14,18,5
388.918,-1,5,7,-3
388.919,-7,0,0,-8
388.92,-8,0,-1,-8
388.92,-6,0,0,-5
388.921,-6,-1,0,-3
388.921,-3,0,1,0
388.922,1,3,6,4
388.922,3,5,6,5
388.923,4,3,4,3
388.924,2,1,2,3
388.924,3,2,1,5
388.925,6,2,0,3
388.925,6,2,-1,2
388.926,6,3,0,5
388.926,7,3,2,7
388.927,8,2,1,6
388.928,7,2,0,5
388.928,7,3,1,5
388.929,5,0,0,3
388.929,2,-2,-1,4
388.93,3,-3,-1,6
388.93,5,-1,-1,5
388.931,7,0,0,6
388.932,6,0,1,6
388.932,6,1,2,5
388.933,5,3,7,9
388.933,6,6,7,8
388.934,6,6,5,3
388.934,3,3,1,0
388.935,1,3,-2,-4
388.936,1,7,2,-4
388.936,1,9,5,-3
388.937,0,8,5,-3
388.937,0,8,5,-4
388.938,-1,7,3,-5
388.938,-2,6,3,-4
388.939,0,6,1,-5
388.94,-1,6,3,-2
388.94,0,5,4,0
388.941,1,4,3,0
388.941,1,5,6,3
388.942,1,3,5,4
388.943,1,3,6,5
388.943,2,2,7,7
388.944,3,0,2,4
388.944,1,-2,-1,1
388.945,0,-2,-3,0
388.945,2,0,0,2
388.946,4,0,0,5
388.947,6,2,1,6
388.947,7,2,1,5
388.948,6,1,0,4
388.948,6,1,0,5
388.949,6,2,0,5
388.949,5,0,0,7
388.95,6,0,-1,7
388.951,8,0,0,9
388.951,10,1,0,6
388.952,6,0,-1,4
388.952,6,3,3,6
388.953,7,4,4,5
388.953,5,5,5,4
388.954,4,4,4,2
388.954,2,2,2,0
388.955,1,4,3,-1
388.956,1,7,4,-2
388.956,0,7,5,-3
388.957,-1,8,5,-3
388.957,-1,8,5,-3
388.958,-1,8,5,-5
388.959,-4,4,2,-5
388.959,-3,4,1,-5
388.96,-2,3,1,-3
388.96,-1,3,1,-1
388.961,1,6,4,0
388.961,3,6,5,3
388.962,3,5,6,4
388.963,3,3,5,5
388.963,3,2,2,3
388.964,2,0,0,1
388.964,2,0,-1,1
388.965,4,1,0,3
388.966,6,3,1,5
388.966,7,4,4,7
388.967,7,2,2,6
388.967,5,0,0,4
388.968,5,0,0,3
388.968,5,0,0,5
388.969,5,0,1,5
388.97,4,-2,-1,5
388.97,4,-2,-1,5
388.971,6,-1,0,6
388.971,6,0,0,7
388.972,7,2,3,8
388.972,8,4,3,7
388.973,7,5,4,5
388.973,5,4,2,2
388.974,2,4,2,0
388.975,2,4,2,0
388.975,2,6,4,0
388.976,2,7,2,-4
388.976,0,6,1,-6
388.977,-1,8,5,-5
388.978,-1,9,6,-3
388.978,-1,8,5,-3
388.979,-1,7,5,-3
388.979,0,8,6,-1
388.98,-1,4,4,-1
388.98,-2,1,2,-2
388.981,-2,1,1,0
388.982,0,2,1,0
388.982,2,3,2,2
388.983,3,4,3,2
388.983,4,2,2,3
388.984,5,4,3,5
388.984,6,4,4,6
388.985,4,1,2,5
388.986,3,1,1,4
388.986,4,0,1,6
388.987,5,0,0,4
388.987,5,0,0,4
388.988,5,1,0,4
388.989,5,1,0,5
388.989,4,0,0,6
388.99,5,-1,0,8
388.99,6,0,0,7
388.991,7,0,2,7
388.991,5,-1,-2,5
388.992,6,0,0,4
388.992,6,3,1,5
388.993,8,6,2,3
388.994,6,6,4,2
388.994,4,7,6,3
388.995,4,6,4,0
388.995,2,5,1,-3
388.996,0,7,4,-3
388.997,0,8,5,-3
388.997,-1,6,3,-4
388.998,-2,7,8,-1
388.998,-2,6,6,-2
388.999,-2,5,4,-4
388.999,-3,4,4,-3
389,-3,2,1,-2
389.001,-2,1,0,-2
389.001,0,2,0,-2
389.002,1,4,2,1
389.002,3,4,1,1
389.003,5,5,3,4
389.003,6,6,6,7
389.004,6,5,5,7
389.004,6,4,3,5
389.005,5,2,3,5
389.006,4,0,0,4
389.006,4,0,-1,2
389.007,3,-1,-3,2
389.007,5,0,-2,3
389.008,6,1,-1,3
389.009,6,2,-1,3
389.009,5,0,-1,5
389.01,6,0,0,8
389.01,8,3,8,16
389.011,11,3,7,12
389.011,7,-2,0,6
389.012,4,-1,0,4
389.013,3,0,-1,0
389.013,1,1,0,0
389.014,1,2,2,1
389.014,1,5,5,3
389.015,3,7,5,1
389.015,2,7,4,-2
389.016,0,6,1,-6
389.017,-2,5,0,-10
389.017,-2,5,0,-9
389.018,0,13,7,-2
389.018,2,12,9,0
389.019,2,10,7,0
389.02,1,9,7,0
389.02,0,5,4,0
389.021,0,3,4,0
389.021,0,2,2,0
389.022,-1,0,1,1
389.022,0,1,2,2
389.023,2,1,1,3
389.023,3,1,2,4
389.024,3,0,0,2
389.025,2,0,-1,2
389.025,4,1,0,3
389.026,6,2,0,4
389.026,8,3,0,4
389.027,8,4,0,4
389.027,8,4,1,5
389.028,7,3,2,6
389.029,7,2,2,7
389.029,6,-1,1,7
389.03,6,-1,0,8
389.03,5,0,3,10
389.031,5,-1,4,11
389.031,5,-3,-1,4
389.032,3,-2,-2,1
389.033,2,0,0,2
389.033,4,3,3,3
389.034,5,5,4,2
389.034,4,5,4,2
389.035,4,7,4,0
389.035,3,8,4,-2
389.036,0,8,4,-4
389.037,0,8,5,-3
389.037,0,10,7,-1
389.038,0,9,7,-2
389.038,-1,7,5,-5
389.039,-4,3,2,-5
389.04,-4,2,1,-3
389.04,-2,3,2,0
389.041,0,3,1,-1
389.041,0,2,1,0
389.042,1,2,3,3
389.042,2,4,5,5
389.043,4,4,5,6
389.044,6,4,5,6
389.044,6,3,3,4
389.045,3,1,1,3
389.045,4,0,0,3
389.046,3,0,-1,3
389.046,4,0,-2,3
389.047,6,1,0,3
389.048,6,1,0,4
389.048,6,3,1,6
389.049,6,2,2,6
389.049,6,0,0,7
389.05,6,-1,0,8
389.051,7,1,1,8
389.051,7,-1,-1,6
389.052,5,0,0,6
389.052,7,2,2,6
389.053,7,4,2,3
389.053,5,5,3,2
389.054,4,5,3,2
389.055,2,4,3,1
389.055,1,6,4,-1
389.056,0,6,3,-2
389.056,0,8,4,-4
389.057,0,7,4,-5
389.057,-1,7,3,-6
389.058,-1,6,1,-6
389.059,-2,6,3,-3
389.059,0,8,6,-2
389.06,-1,5,5,0
389.06,0,3,4,0
389.061,0,3,3,2
389.061,1,3,3,2
389.062,2,2,2,2
389.063,1,1,0,2
389.063,2,2,1,4
389.064,4,2,2,4
389.064,5,2,1,4
389.065,5,1,0,2
389.065,4,0,0,2
389.066,5,2,0,4
389.067,6,1,0,4
389.067,7,3,0,4
389.068,7,2,0,4
389.068,6,2,1,5
389.069,5,0,0,5
389.069,5,-1,0,8
389.07,6,0,0,8
389.071,6,0,1,8
389.071,6,0,0,7
389.072,5,0,2,6
389.072,6,1,2,6
389.073,5,3,3,3
389.073,4,4,3,2
389.074,3,4,3,1
389.075,2,4,2,-1
389.075,1,6,4,0
389.076,1,8,5,-1
389.076,0,8,5,-3
389.077,-1,8,5,-3
389.077,-1,8,4,-6
389.078,-3,4,2,-5
389.079,-3,5,3,-4
389.079,-1,7,6,-1
389.08,0,5,4,0
389.08,0,3,1,-3
389.081,0,3,0,-1
389.081,0,2,3,2
389.082,2,3,3,4
389.083,4,3,3,4
389.083,4,3,3,5
389.084,5,3,2,4
389.084,4,2,1,3
389.085,4,1,2,5
389.085,4,2,4,8
389.086,6,2,3,6
389.087,5,-1,-3,1
389.087,2,-1,-3,1
389.088,2,0,0,5
389.088,5,0,1,6
389.089,5,0,1,8
389.09,6,-1,-1,6
389.09,6,-2,-1,6
389.091,7,0,0,6
389.091,6,0,1,8
389.092,9,4,4,9
389.092,9,5,3,5
389.093,7,5,1,0
389.094,3,2,0,-1
389.094,2,3,1,0
389.095,2,6,4,1
389.095,4,9,6,0
389.096,3,10,6,-1
389.096,0,8,5,-4
389.097,-1,6,4,-4
389.098,-2,7,4,-6
389.098,-3,5,4,-4
389.099,-1,7,5,-4
389.099,-2,5,5,-1
389.1,-1,3,4,0
389.1,0,2,1,-1
389.101,0,1,0,0
389.102,0,2,3,3
389.102,3,4,4,4
389.103,3,2,1,3
389.103,2,0,0,2
389.104,2,0,0,2
389.104,3,3,3,6
389.105,6,3,4,7
389.106,5,1,0,4
389.106,5,0,-2,3
389.107,7,3,0,4
389.107,6,4,5,7
389.108,7,3,6,9
389.109,6,0,1,6
389.109,3,-4,-3,4
389.11,4,-3,-5,3
389.11,5,-1,-4,3
389.111,6,1,2,9
389.111,8,2,4,9
389.112,9,5,6,9
389.113,8,5,6,7
389.113,5,4,4,2
389.114,1,1,1,0
389.114,0,1,0,0
389.115,1,4,2,0
389.115,3,7,3,-2
389.116,1,7,4,-4
389.117,-1,6,3,-6
389.117,-2,6,2,-5
389.118,0,8,3,-4
389.118,0,11,6,-3
389.119,0,10,7,-3
389.12,-2,5,4,-3
389.12,-3,2,2,-1
389.12,0,2,3,0
389.121,1,4,5,2
389.122,2,4,2,1
389.122,3,1,-2,0
389.123,3,2,-2,0
389.123,7,4,0,2
389.124,7,5,1,3
389.125,7,7,6,9
389.125,9,7,12,14
389.126,7,2,6,9
389.126,5,0,1,5
389.127,3,0,2,6
389.128,1,-3,-1,2
389.128,0,-5,-5,0
389.129,0,-4,-4,1
389.129,2,-4,-3,4
389.13,3,-3,-1,5
389.13,5,0,1,7
389.131,6,0,1,8
389.132,8,3,4,10
389.132,10,4,2,6
389.133,9,5,1,2
389.133,6,6,4,3
389.134,5,7,4,3
389.134,5,6,4,1
389.135,5,9,6,0
389.135,1,7,4,-3
389.136,-1,5,3,-5
389.137,-3,6,3,-5
389.137,-2,7,4,-4
389.138,-1,7,4,-5
389.138,-3,5,3,-4
389.139,-3,3,2,-3
389.139,-2,3,3,0
389.14,0,4,4,1
389.141,2,5,5,2
389.141,2,3,3,0
389.142,1,0,0,-1
389.142,0,2,2,3
389.143,4,4,4,5
389.143,5,4,3,4
389.144,5,2,1,3
389.145,3,0,0,2
389.145,4,1,0,5
389.146,6,3,2,7
389.146,7,3,3,6
389.147,6,2,4,7
389.147,5,1,4,8
389.148,4,0,-1,2
389.149,0,-6,-7,-1
389.149,0,-7,-9,0
389.15,3,-4,-5,4
389.15,8,1,1,8
389.151,10,3,3,11
389.152,12,6,7,12
389.152,11,7,6,8
389.153,8,6,4,4
389.153,6,6,3,1
389.154,2,4,3,0
389.154,2,4,0,-2
389.155,1,6,3,-2
389.156,0,7,3,-4
389.156,0,9,4,-5
389.157,-2,7,5,-4
389.157,-2,6,5,-4
389.158,-3,5,4,-4
389.158,-3,4,2,-4
389.159,-2,4,2,-3
389.16,-2,3,4,0
389.16,0,3,4,0
389.161,0,2,3,1
389.161,2,3,3,2
389.162,1,3,4,4
389.162,4,4,4,4
389.163,4,2,2,3
389.164,3,1,0,3
389.164,3,0,1,3
389.165,3,1,1,4
389.165,4,1,0,4
389.166,4,0,0,3
389.166,5,0,-1,4
389.167,6,2,0,5
389.168,7,3,1,6
389.168,8,2,0,5
389.169,6,0,0,6
389.169,6,-1,-1,7
389.17,6,0,0,7
389.171,6,0,0,7
389.171,7,0,2,7
389.172,7,2,1,5
389.172,5,2,2,3
389.173,5,4,3,2
389.173,4,5,3,3
389.174,4,5,3,0
389.175,2,4,2,-1
389.175,1,5,2,-4
389.176,0,8,3,-4
389.176,1,9,5,-3
389.177,0,9,5,-4
389.177,0,10,7,-2
389.178,0,9,8,0
389.179,-1,7,6,-2
389.179,-2,4,3,-3
389.18,-4,0,0,-4
389.18,-3,1,2,0
389.181,0,2,4,1
389.182,0,1,0,0
389.182,2,3,1,2
389.183,3,4,3,4
389.183,4,3,3,5
389.184,4,2,3,6
389.184,4,2,3,6
389.185,4,0,1,4
389.185,4,0,0,4
389.186,5,2,3,8
389.187,7,3,4,9
389.187,7,1,1,6
389.188,5,0,0,3
389.188,3,-1,-3,1
389.189,3,-5,-7,1
389.189,3,-5,-9,0
389.19,7,1,-1,6
389.191,10,5,4,12
389.191,14,9,7,12
389.192,12,6,4,7
389.192,8,4,2,3
389.193,5,5,3,1
389.193,3,4,3,0
389.194,2,4,4,0
389.195,1,6,5,-1
389.195,0,6,4,-3
389.196,0,5,2,-5
389.196,-2,5,0,-8
389.197,-3,4,-2,-9
389.198,0,8,1,-6
389.198,1,10,5,-3
389.199,1,9,3,-3
389.199,0,9,10,3
389.2,2,10,15,9
389.2,1,3,7,3
389.201,-2,0,2,0
389.202,-3,-1,1,0
389.202,-1,0,1,2
389.203,0,-1,0,1
389.203,0,-1,0,1
389.204,3,1,0,3
389.204,5,2,2,5
389.205,7,2,1,4
389.206,6,2,1,4
389.206,6,1,0,4
389.207,6,3,2,6
389.207,7,3,2,6
389.208,6,2,2,5
389.208,5,0,0,5
389.209,3,-2,-1,5
389.21,5,-1,0,6
389.21,6,0,1,8
389.211,7,0,1,9
389.211,9,2,2,7
389.212,8,1,0,4
389.212,6,4,0,2
389.213,6,6,2,0
389.214,3,5,2,0
389.214,1,5,2,-1
389.215,1,7,3,-2
389.215,0,8,4,-4
389.216,1,12,8,-2
389.216,0,10,9,-1
389.217,-2,8,6,-3
389.218,-3,5,4,-3
389.218,-2,5,3,-2
389.219,-2,5,2,-3
389.219,-4,0,0,-3
389.22,-2,1,1,0
389.22,1,4,3,2
389.221,3,4,3,3
389.222,3,3,3,2
389.222,2,3,2,3
389.223,3,2,3,5
389.223,5,3,4,7
389.224,6,3,2,4
389.224,5,2,0,2
389.225,3,0,-1,2
389.226,3,0,0,4
389.226,5,1,2,6
389.227,6,2,1,5
389.227,5,0,-2,2
389.228,3,-1,-2,3
389.228,4,0,0,6
389.229,6,0,1,8
389.23,7,0,1,9
389.23,8,2,3,9
389.231,7,0,1,7
389.231,7,1,2,6
389.232,5,2,1,4
389.233,4,3,2,3
389.233,3,4,2,1
389.234,3,3,1,0
389.234,2,3,1,-2
389.235,1,6,4,-1
389.235,1,8,5,-1
389.236,0,10,9,0
389.236,0,9,6,-3
389.237,0,8,3,-7
389.238,-4,5,1,-6
389.238,-3,4,2,-4
389.239,-1,4,2,-3
389.239,0,5,2,-1
389.24,1,5,4,0
389.241,2,6,5,2
389.241,2,4,3,2
389.242,2,3,3,3
389.242,3,3,3,4
389.243,3,2,2,3
389.243,3,1,0,2
389.244,3,1,1,3
389.245,3,0,2,6
389.245,4,0,1,5
389.246,5,0,0,4
389.246,4,0,1,5
389.247,5,1,1,5
389.247,6,2,0,5
389.248,6,1,0,5
389.249,6,0,-1,5
389.249,4,-1,-1,5
389.25,6,-1,0,7
389.25,7,1,2,9
389.251,9,2,3,8
389.251,7,2,2,6
389.252,5,1,1,3
389.253,3,0,-1,0
389.253,2,2,0,0
389.254,4,6,6,3
389.254,5,9,7,3
389.255,5,9,6,0
389.255,0,6,4,-3
389.256,-1,7,5,-4
389.257,-1,7,4,-5
389.257,-1,8,5,-4
389.258,-2,5,1,-7
389.258,-4,4,1,-6
389.259,-2,4,2,-4
389.259,-1,4,3,0
389.26,1,5,3,0
389.261,3,5,3,1
389.261,3,4,3,2
389.262,3,3,2,2
389.262,3,2,1,3
389.263,5,5,6,6
389.263,5,4,4,6
389.264,5,1,2,4
389.265,3,-1,-4,0
389.265,3,0,-4,0
389.266,4,0,0,4
389.266,7,4,3,7
389.267,8,4,4,8
389.268,8,4,4,7
389.268,6,1,3,7
389.269,3,-3,0,7
389.269,2,-4,0,8
389.27,3,-2,0,6
389.27,3,-3,0,6
389.271,5,0,0,5
389.272,5,1,0,4
389.272,5,3,2,3
389.273,5,5,4,3
389.273,5,5,3,1
389.274,5,6,1,-1
389.274,3,7,3,-2
389.275,1,8,5,-1
389.276,2,10,6,-3
389.276,0,9,7,-1
389.277,-1,7,6,-3
389.277,-2,5,5,-4
389.278,-4,4,4,-4
389.278,-4,3,2,-4
389.279,-3,3,0,-3
389.28,-1,3,2,-1
389.28,0,3,1,0
389.281,2,3,0,0
389.281,3,5,4,3
389.282,6,7,7,6
389.282,7,6,5,5
389.283,4,2,1,3
389.284,3,1,0,3
389.284,4,1,0,4
389.285,4,1,0,4
389.285,5,1,0,4
389.286,4,0,1,5
389.286,5,2,2,7
389.287,6,2,2,6
389.288,5,0,0,4
389.288,4,-1,0,4
389.289,3,-3,-1,5
389.289,4,-2,0,6
389.29,5,0,0,7
389.291,7,0,0,7
389.291,7,1,0,5
389.292,7,2,0,3
389.292,7,5,3,3
389.293,6,6,4,3
389.293,4,5,4,1
389.294,3,5,4,1
389.295,3,7,3,-1
389.295,1,7,4,-3
389.296,0,7,3,-5
389.296,-1,5,-1,-9
389.297,-1,7,-1,-8
389.297,0,10,5,-2
389.298,1,12,10,1
389.299,1,9,8,0
389.299,0,5,3,-1
389.3,-1,2,3,0
389.3,0,2,2,0
389.301,-1,1,1,0
389.301,0,1,2,2
389.302,1,3,3,3
389.303,2,2,3,5
389.303,4,1,3,5
389.304,4,1,2,4
389.304,2,0,0,4
389.305,3,0,0,6
389.305,6,1,2,6
389.306,5,0,0,4
389.307,5,0,-1,3
389.307,5,0,-2,3
389.308,6,1,0,4
389.308,7,1,0,7
389.309,8,1,2,9
389.31,7,0,0,8
389.31,6,0,1,7
389.311,6,0,2,9
389.311,8,3,3,7
389.312,7,3,2,4
389.312,5,3,1,1
389.313,2,4,1,0
389.314,2,4,2,0
389.314,3,6,3,0
389.315,2,6,3,-2
389.315,0,6,3,-3
389.316,1,8,5,-2
389.316,0,8,4,-3
389.317,1,10,6,-4
389.317,-2,7,4,-5
389.318,-4,5,2,-6
389.319,-4,4,3,-3
389.319,-2,3,3,-2
389.32,-1,3,2,0
389.32,0,4,3,0
389.321,0,3,3,1
389.322,2,3,3,3
389.322,3,4,4,5
389.323,5,3,2,4
389.323,3,2,2,5
389.324,5,2,1,4
389.324,5,1,1,4
389.325,5,2,1,5
389.326,6,2,0,3
389.326,5,1,0,4
389.327,5,1,1,5
389.327,7,2,0,4
389.328,6,2,2,7
389.328,5,0,0,7
389.329,4,-3,-2,5
389.33,3,-4,-4,3
389.33,3,-1,0,6
389.331,5,0,2,8
389.331,7,2,2,7
389.332,7,4,4,7
389.332,7,6,5,5
389.333,5,6,5,3
389.334,3,5,4,0
389.334,1,4,2,-2
389.335,0,6,3,-2
389.335,0,7,3,-4
389.336,0,7,2,-5
389.336,-1,6,1,-6
389.337,-2,7,3,-6
389.338,-1,8,6,-2
389.338,0,8,5,-1
389.339,0,6,5,-1
389.339,0,3,2,-1
389.34,-1,2,2,0
389.34,0,2,3,1
389.341,2,4,4,1
389.342,2,3,4,4
389.342,4,4,3,3
389.343,3,1,0,2
389.343,3,1,-1,1
389.344,4,2,0,4
389.345,6,3,1,5
389.345,7,4,2,5
389.346,6,4,4,7
389.346,7,3,6,10
389.347,6,1,3,7
389.347,5,1,2,6
389.348,2,-1,2,6
389.349,0,-6,-1,5
389.349,0,-6,-1,6
389.35,3,-2,1,8
389.35,4,-3,0,7
389.351,5,-2,-2,4
389.351,5,0,-2,2
389.352,6,4,1,4
389.353,9,8,4,4
389.353,8,9,4,2
389.354,4,7,3,0
389.354,3,6,2,-2
389.355,2,6,1,-5
389.355,2,10,5,-3
389.356,1,10,7,-1
389.357,0,10,7,-1
389.357,0,9,5,-4
389.358,-2,5,3,-5
389.358,-2,5,2,-6
389.359,-4,2,1,-3
389.359,-1,3,4,0
389.36,1,4,3,1
389.361,2,4,3,1
389.361,2,3,1,1
389.362,1,2,2,2
389.362,2,2,2,3
389.363,4,2,2,5
389.363,5,2,2,5
389.364,5,1,2,5
389.365,5,0,0,4
389.365,5,0,0,5
389.366,5,1,0,4
389.366,5,2,1,4
389.367,5,2,1,5
389.367,5,1,0,4
389.368,3,-2,-2,4
389.369,4,-2,0,6
389.369,5,-1,0,7
389.37,7,0,0,7
389.37,6,0,0,7
389.371,7,2,2,7
389.371,7,4,3,6
389.372,7,5,3,4
389.373,5,5,2,2
389.373,3,5,2,0
389.374,2,4,2,0
389.374,3,7,4,0
389.375,2,8,4,-2
389.375,1,10,6,-2
389.376,-1,8,4,-5
389.377,-3,6,4,-4
389.377,-3,5,3,-4
389.378,-3,4,5,-3
389.378,-3,4,3,-3
389.379,-3,2,3,0
389.38,0,2,3,0
389.38,2,4,2,0
389.381,2,3,1,0
389.381,1,3,2,2
389.382,2,3,2,4
389.382,3,2,3,5
389.383,5,3,2,5
389.384,5,2,1,4
389.384,5,1,0,3
389.385,5,1,0,3
389.385,5,2,2,6
389.386,7,3,2,6
389.386,7,3,2,5
389.387,5,1,0,4
389.388,5,1,0,5
389.388,4,-2,-2,4
389.389,4,-2,-2,6
389.389,5,-1,-1,7
389.39,7,0,0,7
389.39,7,0,-1,6
389.391,7,2,1,6
389.392,6,3,3,5
389.392,6,6,4,4
389.393,6,6,3,2
389.393,4,4,2,0
389.394,3,6,3,-1
389.395,3,8,5,-1
389.395,2,10,7,-1
389.396,0,9,7,-2
389.396,0,7,6,-4
389.397,-2,6,3,-6
389.397,-4,4,2,-6
389.398,-5,3,2,-4
389.398,-4,4,5,-2
389.399,-2,3,4,0
389.4,0,4,4,1
389.4,0,2,2,0
389.401,0,1,1,0
389.401,1,1,2,3
389.402,3,4,4,5
389.403,6,4,4,6
389.403,6,4,3,4
389.404,5,2,0,3
389.404,5,1,0,5
389.405,6,3,2,6
389.405,6,2,0,4
389.406,4,0,0,4
389.407,4,0,1,5
389.407,5,0,1,6
389.408,5,0,0,6
389.408,5,-1,0,7
389.409,5,-3,-2,5
389.409,5,-1,-2,4
389.41,5,0,0,6
389.411,8,2,2,8
389.411,9,5,4,7
389.412,7,5,3,5
389.412,5,4,2,2
389.413,3,2,0,-1
389.413,1,4,2,0
389.414,3,7,6,2
389.415,3,6,1,-4
389.415,0,7,1,-6
389.416,0,10,6,-2
389.416,0,8,5,-4
389.417,-1,8,6,-3
389.417,-1,7,5,-3
389.418,-1,7,5,-2
389.419,0,5,3,-1
389.419,-1,3,4,0
389.42,0,2,2,1
389.42,0,2,3,2
389.421,2,3,3,3
389.422,3,1,2,3
389.422,2,1,0,2
389.423,2,0,0,1
389.423,2,0,-2,0
389.424,4,1,-2,0
389.424,6,3,0,3
389.425,7,6,3,6
389.426,7,5,6,8
389.426,8,5,5,9
389.427,8,3,3,6
389.427,5,2,3,5
389.428,3,0,3,8
389.428,1,-5,0,6
389.429,2,-6,-2,6
389.43,5,-1,0,6
389.43,5,-2,-2,5
389.431,6,0,0,5
389.431,5,1,0,4
389.432,6,5,3,5
389.432,7,8,5,4
389.433,6,8,5,2
389.433,3,4,1,-1
389.434,1,6,4,0
389.435,1,8,6,-1
389.435,1,9,5,-3
389.436,-1,6,3,-7
389.436,-3,5,1,-8
389.437,-4,5,1,-7
389.438,-2,7,3,-4
389.438,0,7,5,-1
389.439,0,5,3,-1
389.439,0,2,1,-1
389.44,1,4,3,1
389.44,3,5,5,4
389.441,4,4,4,4
389.442,4,6,8,8
389.442,4,5,9,9
389.443,3,0,2,4
389.443,0,-3,-1,0
389.444,0,-3,-2,1
389.444,2,0,-1,1
389.445,4,0,0,4
389.446,5,0,0,5
389.446,7,3,2,6
389.447,7,3,2,6
389.447,6,2,1,5
389.448,5,0,0,6
389.448,4,-2,0,6
389.449,6,-1,0,7
389.45,6,0,0,6
389.45,7,0,0,5
389.451,7,1,0,5
389.451,7,3,1,4
389.452,6,6,4,4
389.452,6,6,4,3
389.453,5,7,4,2
389.454,2,5,4,0
389.454,3,7,5,0
389.455,1,7,4,-2
389.455,0,6,3,-5
389.456,-2,5,2,-5
389.457,-1,7,3,-4
389.457,-1,7,3,-5
389.458,-2,6,4,-5
389.458,-2,5,3,-3
389.459,-1,3,4,0
389.459,0,4,4,1
389.46,2,5,6,3
389.461,3,4,3,0
389.461,1,2,2,1
389.462,2,2,2,3
389.462,4,3,2,4
389.463,4,2,1,4
389.463,4,3,2,5
389.464,5,1,1,4
389.464,4,1,2,5
389.465,5,1,2,5
389.466,5,0,0,4
389.466,6,0,0,4
389.467,5,1,1,5
389.467,6,1,2,6
389.468,4,-2,-1,5
389.469,3,-4,-1,6
389.469,5,-1,0,8
389.47,7,-1,-2,4
389.47,5,-1,-2,5
389.471,7,3,1,6
389.471,8,6,4,6
389.472,8,7,4,4
389.473,5,6,4,2
389.473,4,6,4,1
389.474,3,6,3,0
389.474,2,6,3,-2
389.475,0,6,3,-4
389.475,-2,6,3,-4
389.476,0,8,5,-3
389.477,-1,8,5,-3
389.477,-1,7,5,-3
389.478,-2,6,5,-2
389.478,-2,3,2,-2
389.479,-3,0,0,-3
389.479,-2,1,1,0
389.48,0,3,5,2
389.481,2,3,4,4
389.481,3,2,3,3
389.482,2,1,1,2
389.482,5,4,1,4
389.483,6,4,1,3
389.483,5,3,2,5
389.484,6,3,3,6
389.485,7,4,3,6
389.485,7,2,0,3
389.486,4,0,0,3
389.486,4,0,0,3
389.487,3,0,1,4
389.488,3,0,1,6
389.488,3,-3,-1,5
389.489,3,-3,-2,5
389.489,5,-1,0,6
389.49,5,0,0,7
389.49,7,2,2,8
389.491,9,4,3,6
389.492,7,5,4,4
389.492,5,4,3,2
389.493,3,3,2,0
389.493,2,4,3,0
389.494,3,6,4,0
389.494,2,8,5,-1
389.495,0,8,4,-3
389.496,0,8,5,-3
389.496,-1,8,5,-3
389.497,-1,7,4,-6
389.497,-3,5,2,-5
389.498,-3,4,0,-6
389.498,-4,2,1,-3
389.499,0,6,4,0
389.5,2,6,5,2
389.5,3,5,6,4
389.501,3,4,4,4
389.501,3,4,5,3
389.502,1,1,2,3
389.503,1,0,1,3
389.503,1,-1,0,2
389.504,4,1,0,2
389.504,4,2,3,7
389.505,6,2,3,6
389.505,5,0,0,3
389.506,5,0,-1,4
389.506,5,1,-2,3
389.507,6,3,0,4
389.508,6,2,0,6
389.508,6,0,0,6
389.509,5,-2,-2,5
389.509,6,0,0,7
389.51,7,2,5,13
389.51,10,4,7,12
389.511,9,1,0,4
389.512,6,2,0,1
389.512,4,3,1,0
389.513,0,1,0,-2
389.513,0,1,0,-1
389.514,1,6,3,-1
389.514,3,10,6,-1
389.515,2,11,7,-2
389.516,0,8,4,-5
389.516,-1,7,4,-5
389.517,-1,8,5,-3
389.517,-1,8,7,-1
389.518,0,6,5,-2
389.519,-2,2,0,-3
389.519,-2,1,0,-1
389.52,0,2,2,0
389.52,2,4,3,3
389.521,4,5,5,4
389.521,4,3,3,3
389.522,3,2,2,3
389.523,3,1,2,4
389.523,4,2,2,5
389.524,4,1,1,4
389.524,3,0,0,3
389.525,3,0,-1,3
389.525,4,0,-2,2
389.526,5,0,-2,2
389.527,5,1,0,4
389.527,7,3,2,7
389.528,7,1,3,9
389.528,6,0,2,11
389.529,7,-1,1,8
389.529,6,0,0,7
389.53,5,-2,-1,5
389.531,4,0,0,4
389.531,4,1,1,5
389.532,6,5,4,4
389.532,6,6,3,2
389.533,3,5,2,0
389.533,2,3,0,-2
389.534,1,6,3,-2
389.535,1,8,5,-1
389.535,1,9,6,-1
389.536,0,9,6,-2
389.536,0,8,3,-5
389.537,-2,5,1,-6
389.538,-3,4,1,-4
389.538,-1,4,2,-3
389.539,0,5,5,0
389.539,0,4,5,1
389.54,2,4,4,0
389.54,1,3,4,2
389.541,1,4,5,5
389.541,2,2,3,4
389.542,2,0,1,3
389.543,2,0,-1,1
389.543,2,0,-3,0
389.544,3,0,-3,0
389.544,5,2,1,6
389.545,7,3,1,5
389.546,8,4,1,5
389.546,8,4,2,6
389.547,9,5,4,6
389.547,6,3,3,7
389.548,4,-1,1,7
389.548,4,-2,0,7
389.549,5,-2,0,7
389.549,4,-2,-1,5
389.55,4,-2,-1,4
389.551,5,1,0,4
389.551,6,2,0,2
389.552,4,3,0,1
389.552,4,5,3,2
389.553,4,7,4,2
389.554,4,8,5,1
389.554,4,9,5,0
389.555,2,9,5,-2
389.555,1,9,5,-3
389.556,0,9,6,-2
389.556,0,9,7,-3
389.557,-1,6,3,-6
389.558,-4,3,1,-6
389.558,-5,0,1,-3
389.559,-4,0,2,-1
389.559,0,1,3,1
389.56,0,4,5,3
389.56,2,3,3,3
389.561,2,3,3,3
389.562,3,1,2,3
389.562,3,2,1,3
389.563,4,2,2,4
389.563,5,3,1,4
389.564,5,3,2,4
389.564,5,2,2,5
389.565,5,2,3,7
389.566,7,3,2,5
389.566,5,0,0,3
389.567,4,0,0,4
389.567,4,-1,0,4
389.568,4,-3,-1,6
389.569,5,-2,-1,6
389.569,6,0,0,6
389.57,6,0,0,7
389.57,7,2,2,7
389.571,7,2,2,6
389.571,7,3,2,5
389.572,6,5,2,2
389.572,5,5,3,1
389.573,3,5,2,0
389.574,4,7,4,0
389.574,2,7,4,-2
389.575,1,7,2,-5
389.575,0,8,1,-7
389.576,0,8,2,-6
389.577,-1,9,5,-4
389.577,0,9,7,-1
389.578,0,7,7,0
389.578,-1,4,5,0
389.579,-1,1,2,0
389.579,-1,2,2,0
389.58,0,4,7,6
389.581,1,0,3,3
389.581,1,-1,-2,0
389.582,1,0,-2,0
389.582,3,2,1,3
389.583,5,4,3,5
389.583,5,3,4,6
389.584,6,4,5,7
389.585,6,3,3,7
389.585,5,0,-2,0
389.586,2,-2,-3,0
389.586,3,0,-1,3
389.587,5,3,2,7
389.587,8,3,3,8
389.588,6,0,2,7
389.589,6,-1,0,6
389.589,5,0,0,7
389.59,5,-1,0,7
389.59,6,1,1,6
389.591,6,2,1,5
389.591,6,3,2,4
389.592,5,4,2,2
389.593,4,5,3,1
389.593,3,5,3,0
389.594,2,6,1,-3
389.594,1,7,2,-3
389.595,1,9,5,-2
389.595,2,10,6,-2
389.596,1,10,5,-3
389.597,0,8,4,-5
389.597,-3,3,0,-6
389.598,-3,4,1,-4
389.598,-3,3,1,-1
389.599,0,3,3,0
389.599,2,5,4,2
389.6,3,5,5,3
389.601,3,5,6,4
389.601,3,4,6,4
389.602,2,0,2,4
389.602,3,0,0,2
389.603,2,0,-1,1
389.603,2,0,-1,2
389.604,3,0,0,3
389.605,4,1,1,7
389.605,6,1,2,7
389.606,8,2,0,5
389.606,8,2,1,6
389.607,7,3,4,7
389.608,6,-1,0,4
389.608,4,-3,-3,3
389.609,3,-2,-1,5
389.609,5,0,1,7
389.61,5,0,2,7
389.61,6,2,3,6
389.611,6,2,2,4
389.612,5,4,2,1
389.612,3,4,2,1
389.613,3,5,2,1
389.613,4,7,5,2
389.614,5,10,5,0
389.614,2,9,6,-1
389.615,1,9,5,-3
389.616,-2,7,5,-5
389.616,-2,6,3,-5
389.617,-3,5,2,-4
389.617,-1,6,4,-4
389.618,-2,5,2,-4
389.618,-3,2,0,-3
389.619,-1,1,0,-1
389.62,1,3,3,1
389.62,3,5,6,5
389.621,4,4,5,4
389.621,3,2,3,4
389.622,4,3,3,4
389.622,3,1,2,5
389.623,4,1,1,4
389.624,3,0,0,4
389.624,4,0,0,5
389.625,5,1,0,5
389.625,5,1,0,4
389.626,6,2,0,4
389.627,6,2,0,3
389.627,5,1,-1,3
389.628,4,-1,-1,6
389.628,6,0,0,8
389.629,8,2,3,9
389.629,8,1,3,9
389.63,7,0,2,8
389.631,6,1,2,4
389.631,5,3,3,4
389.632,3,3,4,3
389.632,2,3,1,0
389.633,1,1,-1,-3
389.633,0,3,1,-1
389.634,2,7,4,-1
389.634,2,9,6,-1
389.635,2,10,6,-2
389.636,0,8,4,-4
389.636,0,9,5,-4
389.637,-1,7,3,-5
389.637,-2,4,1,-5
389.638,-3,3,2,-2
389.639,0,4,3,1
389.639,1,5,4,2
389.64,2,4,3,1
389.64,1,3,2,1
389.641,3,2,1,2
389.641,2,2,2,3
389.642,4,3,3,5
389.643,5,2,2,3
389.643,3,1,1,4
389.644,4,1,1,5
389.644,5,1,0,4
389.645,5,0,0,4
389.645,6,0,0,3
389.646,5,1,0,4
389.647,6,2,0,4
389.647,6,2,1,6
389.648,5,-1,0,6
389.648,6,0,1,8
389.649,7,0,3,9
389.649,6,0,1,8
389.65,7,0,1,7
389.651,6,1,2,6
389.651,6,3,2,2
389.652,4,2,0,0
389.652,1,3,1,-1
389.653,1,6,3,0
389.653,3,7,5,0
389.654,3,9,4,-2
389.655,1,10,7,-2
389.655,0,9,6,-3
389.656,-1,8,6,-3
389.656,-1,6,3,-5
389.657,-3,3,0,-7
389.658,-3,3,1,-4
389.658,-2,4,4,0
389.659,0,5,5,2
389.659,1,4,3,1
389.66,1,4,3,1
389.66,2,2,2,2
389.661,1,2,3,3
389.661,2,1,1,3
389.662,3,1,0,2
389.663,3,1,0,1
389.663,4,1,0,4
389.664,7,4,3,6
389.664,8,4,4,8
389.665,8,3,4,8
389.665,7,4,3,7
389.666,5,1,2,6
389.667,3,0,0,4
389.667,1,-3,-2,3
389.668,1,-6,-5,3
389.668,3,-4,-6,3
389.669,6,-1,-2,4
389.67,7,0,-1,6
389.67,9,5,4,9
389.671,10,7,6,8
389.671,10,8,6,6
389.672,7,8,7,5
389.672,4,4,2,0
389.673,0,4,1,-2
389.674,0,5,4,-2
389.674,0,8,4,-3
389.675,0,8,7,-1
389.675,-1,8,6,-2
389.676,-2,6,4,-4
389.676,-3,4,2,-6
389.677,-3,4,1,-5
389.678,-3,4,1,-3
389.678,-1,4,1,-2
389.679,0,4,1,-1
389.679,1,5,5,3
389.68,3,6,6,4
389.68,4,5,4,4
389.681,3,3,3,3
389.682,3,2,2,3
389.682,3,1,1,3
389.683,3,1,1,4
389.683,4,1,0,4
389.684,4,1,0,4
389.684,4,0,1,5
389.685,5,1,1,5
389.686,6,2,2,5
389.686,6,2,1,6
389.687,5,1,0,4
389.687,3,-2,-1,5
389.688,4,-3,-1,6
389.688,4,-1,0,8
389.689,7,0,0,7
389.69,6,0,0,6
389.69,7,2,1,6
389.691,6,3,3,4
389.691,6,5,3,3
389.692,4,4,1,0
389.693,2,5,3,1
389.693,4,7,4,0
389.694,3,8,5,0
389.694,1,8,5,-2
389.695,0,9,6,-3
389.695,0,7,5,-3
389.696,-1,7,3,-5
389.697,-3,5,3,-6
389.697,-4,5,2,-4
389.698,-2,5,3,-2
389.698,-1,4,4,0
389.699,0,4,4,1
389.699,1,3,3,0
389.7,1,1,0,2
389.701,2,2,0,2
389.701,3,1,0,2
389.702,5,3,1,4
389.702,5,3,2,4
389.703,6,3,3,5
389.703,5,3,1,4
389.704,4,1,0,3
389.705,4,0,0,3
389.705,4,2,1,4
389.706,5,2,2,5
389.706,6,2,1,4
389.707,4,1,1,6
389.707,6,0,0,6
389.708,7,0,3,9
389.709,6,1,5,11
389.709,5,-1,3,9
389.71,5,-1,0,5
389.71,3,-2,-1,3
389.711,4,0,0,2
389.711,3,2,0,0
389.712,2,3,1,0
389.713,4,6,2,0
389.713,5,9,5,1
389.714,5,11,6,-1
389.714,2,9,4,-3
389.715,0,10,5,-3
389.715,0,9,4,-4
389.716,0,9,6,-3
389.717,-1,6,4,-5
389.717,-3,4,4,-3
389.718,-3,3,3,-1
389.718,-1,2,3,0
389.719,0,3,5,3
389.72,0,0,2,0
389.72,0,0,0,0
389.721,0,1,2,2
389.721,3,3,4,5
389.722,5,4,4,6
389.722,5,2,2,3
389.723,3,0,0,2
389.724,3,0,0,2
389.724,5,2,0,6
389.725,7,4,3,6
389.725,6,1,1,5
389.726,5,1,0,4
389.726,6,2,0,5
389.727,7,2,0,4
389.728,5,-2,-5,2
389.728,5,-2,-2,4
389.729,6,1,1,7
389.729,7,1,1,7
389.73,7,2,2,7
389.73,7,4,3,7
389.731,7,5,4,4
389.732,5,5,4,4
389.732,4,5,4,1
389.733,2,3,3,0
389.733,1,4,2,-2
389.734,0,5,2,-4
389.734,0,7,5,-3
389.735,0,8,5,-3
389.736,-1,7,4,-4
389.736,-2,6,4,-3
389.737,-2,6,5,-2
389.737,0,6,5,-2
389.738,-1,3,3,-2
389.738,-2,1,2,0
389.739,-1,1,0,-2
389.74,0,0,0,0
389.74,1,2,1,2
389.741,5,4,2,4
389.741,6,4,1,3
389.742,6,5,2,4
389.742,7,5,5,7
389.743,7,5,4,7
389.744,5,3,6,8
389.744,4,1,5,8
389.745,3,-1,0,4
389.745,2,-2,-1,2
389.746,2,-1,-1,2
389.746,3,-1,-2,2
389.747,3,-1,-1,3
389.748,3,-2,-1,6
389.748,7,0,1,9
389.749,8,2,1,8
389.749,7,1,0,6
389.75,7,1,2,6
389.75,7,3,3,5
389.751,7,5,3,4
389.752,5,4,3,1
389.752,3,4,3,0
389.753,2,5,2,0
389.753,3,8,5,0
389.754,2,9,5,-2
389.754,1,9,5,-3
389.755,0,7,3,-5
389.756,-1,7,2,-6
389.756,-3,4,2,-6
389.757,-3,5,4,-3
389.757,-1,5,4,-2
389.758,-2,2,2,-1
389.759,0,3,2,0
389.759,0,4,5,2
389.76,1,3,3,2
389.76,2,3,2,3
389.761,3,2,3,4
389.761,4,2,1,4
389.762,5,2,1,3
389.763,4,2,1,4
389.763,5,2,1,5
389.764,5,2,1,5
389.764,5,1,1,4
389.765,5,1,1,5
389.765,6,1,1,4
389.766,3,0,0,3
389.767,4,0,-1,3
389.767,3,-1,0,5
389.768,5,-1,0,8
389.768,7,-1,0,7
389.769,6,-1,-2,4
389.769,6,0,0,6
389.77,8,4,3,6
389.771,8,4,3,6
389.771,7,6,5,5
389.772,5,5,4,3
389.772,4,5,3,1
389.773,2,5,4,0
389.773,1,6,4,-2
389.774,0,7,5,-2
389.775,-1,7,6,-2
389.775,-2,5,3,-4
389.776,-2,6,3,-5
389.776,-2,6,3,-4
389.777,-2,4,3,-4
389.777,-2,3,1,-4
389.778,-3,2,0,-2
389.779,0,4,2,0
389.779,2,4,3,0
389.78,2,5,3,3
389.78,4,6,5,6
389.781,7,6,6,6
389.781,6,5,2,3
389.782,4,1,1,3
389.783,3,0,0,2
389.783,3,0,0,4
389.784,5,2,1,6
389.784,6,2,1,5
389.785,5,0,0,4
389.786,4,0,0,4
389.786,4,1,0,3
389.787,4,1,2,5
389.787,5,0,1,7
389.788,5,-1,0,6
389.788,5,0,0,7
389.789,5,-1,0,8
389.79,8,2,3,8
389.79,7,3,3,6
389.791,5,2,0,2
389.791,3,3,1,1
389.792,3,5,4,2
389.792,4,5,3,2
389.793,3,4,0,-2
389.794,1,4,0,-5
389.794,0,8,4,-3
389.795,1,10,6,-3
389.795,0,9,7,-2
389.796,-1,9,7,-2
389.796,-2,7,5,-3
389.797,-2,5,4,-4
389.798,-3,3,2,-4
389.798,-3,1,1,-2
389.799,-1,2,2,1
389.799,2,5,5,4
389.8,3,4,4,4
389.801,3,4,4,4
389.801,3,2,2,3
389.802,3,0,1,3
389.802,4,2,2,5
389.803,6,3,2,4
389.803,4,0,0,3
389.804,3,0,0,3
389.805,4,0,0,5
389.805,6,3,2,6
389.806,7,3,1,6
389.806,6,2,1,6
389.807,5,0,0,5
389.807,3,-2,0,6
389.808,4,-2,-1,6
389.809,6,-1,0,7
389.809,6,0,0,6
389.81,7,2,2,7
389.81,8,5,5,7
389.811,7,4,4,5
389.811,5,4,2,1
389.812,1,2,0,-1
389.813,0,2,0,-1
389.813,2,5,2,-2
389.814,2,7,1,-4
389.814,2,11,6,-3
389.815,2,12,8,-1
389.815,0,8,5,-4
389.816,-1,6,4,-4
389.817,-2,5,3,-3
389.817,-1,5,3,-3
389.818,-2,3,1,-2
389.818,-1,3,2,0
389.819,0,4,3,1
389.819,2,3,3,3
389.82,3,3,3,3
389.821,4,4,4,5
389.821,3,3,4,4
389.822,3,1,2,4
389.822,4,1,0,3
389.823,3,1,1,4
389.823,4,1,1,4
389.824,5,0,0,3
389.825,4,0,0,4
389.825,4,0,1,5
389.826,5,1,0,5
389.826,5,0,1,6
389.827,5,-1,-1,5
389.827,4,-1,-1,5
389.828,6,0,0,5
389.829,7,1,0,7
389.829,7,0,0,7
389.83,8,4,3,7
389.83,8,5,5,7
389.831,7,7,7,7
389.832,5,4,4,2
389.832,0,2,1,0
389.833,0,3,3,-1
389.833,0,4,1,-4
389.834,-1,4,0,-7
389.834,-1,6,0,-7
389.835,-1,7,2,-5
389.836,1,10,4,-4
389.836,1,12,7,-1
389.837,1,11,9,1
389.837,1,8,7,0
389.838,-1,3,3,0
389.838,-1,2,2,0
389.839,0,1,1,-1
389.84,-1,0,0,0
389.84,0,1,1,3
389.841,3,3,4,5
389.841,4,2,3,4
389.842,4,0,-2,0
389.842,3,0,-2,1
389.843,4,2,-1,3
389.844,7,5,3,6
389.844,9,5,5,7
389.845,8,5,5,8
389.845,7,2,1,4
389.846,4,0,0,3
389.846,3,1,6,9
389.847,4,0,6,11
389.848,3,-5,0,5
389.848,1,-7,-5,3
389.849,1,-5,-4,3
389.849,3,-1,-1,4
389.85,5,1,1,5
389.85,7,3,2,5
389.851,8,7,5,6
389.852,7,8,6,4
389.852,4,5,4,0
389.853,2,5,3,0
389.853,1,6,3,-1
389.854,2,9,5,-1
389.854,1,9,5,-4
389.855,-1,7,3,-6
389.856,-3,6,4,-5
389.856,-2,6,4,-4
389.857,-1,5,2,-3
389.857,0,5,3,-3
389.858,0,2,2,-2
389.859,0,3,2,0
389.859,2,4,4,2
389.86,3,5,5,4
389.86,5,5,4,3
389.861,3,2,2,3
389.861,3,1,1,3
389.862,3,0,0,3
389.862,3,1,0,3
389.863,4,1,1,4
389.864,5,2,0,5
389.864,4,1,0,4
389.865,5,1,0,5
389.865,6,2,2,6
389.866,7,3,3,6
389.867,6,0,1,5
389.867,3,-2,-2,5
389.868,3,-2,0,7
389.868,6,-1,0,7
389.869,5,-1,0,7
389.869,6,1,2,7
389.87,7,1,0,4
389.871,5,3,1,3
389.871,5,6,2,2
389.872,5,6,3,1
389.872,4,6,2,0
389.873,3,7,4,0
389.873,3,9,6,0
389.874,1,8,6,-2
389.875,0,9,5,-3
389.875,-1,7,4,-5
389.876,-2,7,5,-4
389.876,-2,6,3,-5
389.877,-2,5,3,-2
389.877,-2,3,3,-1
389.878,-2,2,4,0
389.879,0,2,4,1
389.879,0,1,2,1
389.88,2,2,3,2
389.88,3,3,2,3
389.881,3,1,1,3
389.881,4,1,-1,1
389.882,4,3,0,3
389.883,6,5,3,6
389.883,7,3,3,7
389.884,6,3,5,7
389.884,5,1,3,7
389.885,6,1,1,4
389.886,3,0,0,2
389.886,1,-1,-1,3
389.887,2,-3,-3,2
389.887,2,-5,-6,1
389.888,5,-1,-4,3
389.888,8,2,0,6
389.889,8,2,2,9
389.89,12,6,4,11
389.89,13,8,5,8
389.891,10,8,4,4
389.891,6,4,2,0
389.892,2,3,1,-1
389.892,0,4,4,0
389.893,2,8,8,0
389.894,0,7,5,-3
389.894,-2,6,4,-5
389.895,-4,5,2,-6
389.895,-4,5,4,-5
389.896,-3,6,6,-3
389.896,-2,6,5,-1
389.897,-1,6,4,-1
389.898,-1,3,2,0
389.898,0,2,2,0
389.899,2,4,3,2
389.899,2,3,3,3
389.9,3,2,2,2
389.9,2,1,0,2
389.901,3,3,2,3
389.902,4,4,4,6
389.902,7,3,3,4
389.903,4,1,0,2
389.903,3,0,-1,1
389.904,2,0,0,3
389.904,4,1,0,5
389.905,5,1,0,5
389.906,6,3,3,7
389.906,7,3,3,6
389.907,6,0,0,4
389.907,4,-3,-2,5
389.908,4,-2,-1,6
389.908,7,0,0,8
389.909,8,2,2,7
389.91,7,2,2,6
389.91,7,4,2,5
389.911,5,3,2,2
389.911,3,3,3,2
389.912,3,4,3,1
389.912,2,5,4,0
389.913,2,6,3,-2
389.914,0,6,3,-4
389.914,0,9,5,-3
389.915,-1,7,5,-3
389.915,0,9,6,-3
389.916,-2,5,3,-6
389.917,-2,6,4,-3
389.917,-2,5,3,-2
389.918,-1,3,2,-1
389.918,0,2,2,0
389.919,0,3,2,0
389.919,1,1,0,1
389.92,3,3,2,3
389.921,4,5,5,6
389.921,6,5,4,5
389.922,4,3,2,4
389.922,4,2,1,4
389.923,4,0,0,2
389.923,3,1,1,5
389.924,5,2,3,6
389.925,4,0,1,5
389.925,3,-1,0,5
389.926,5,0,0,4
389.926,4,0,0,5
389.927,4,-2,-2,5
389.927,4,-2,-1,6
389.928,5,0,0,7
389.929,8,1,2,8
389.929,8,1,2,7
389.93,7,3,3,6
389.93,6,3,2,4
389.931,5,5,4,4
389.931,4,4,3,1
389.932,3,5,4,2
389.933,3,6,3,-1
389.933,1,5,1,-5
389.934,0,5,0,-8
389.934,-1,8,3,-4
389.935,0,9,7,-2
389.935,0,8,6,-2
389.936,0,8,6,-2
389.937,0,7,6,-1
389.937,-1,5,4,-1
389.938,0,2,1,-2
389.938,-1,1,0,-1
389.939,0,2,2,0
389.939,2,3,3,2
389.94,2,3,2,3
389.941,2,1,0,2
389.941,2,2,1,4
389.942,5,3,2,5
389.942,5,3,4,5
389.943,6,3,2,5
389.944,5,1,0,4
389.944,4,1,0,4
389.945,6,2,1,5
389.945,6,2,2,7
389.946,6,3,3,7
389.946,4,0,-1,3
389.947,1,-5,-3,3
389.948,3,-3,-1,5
389.948,6,-1,0,6
389.949,6,-1,-1,5
389.949,8,2,0,5
389.95,8,4,2,6
389.95,9,7,4,5
389.951,7,6,5,3
389.951,4,5,3,1
389.952,3,5,3,0
389.953,2,6,4,0
389.953,1,6,4,-2
389.954,0,7,4,-4
389.954,0,7,3,-5
389.955,-1,8,4,-4
389.956,0,8,5,-4
389.956,-1,7,6,-2
389.957,-2,5,5,-3
389.957,-4,3,4,0
389.958,-2,2,1,-1
389.958,0,0,-1,-3
389.959,-1,1,-1,-1
389.96,1,1,-2,0
389.96,5,5,2,3
389.961,7,8,8,8
389.961,9,9,10,10
389.962,7,4,7,7
389.962,4,1,5,7
389.963,2,0,4,7
389.964,2,-1,0,3
389.964,1,-4,-4,0
389.965,1,-3,-4,0
389.965,1,-2,-3,2
389.966,4,0,0,4
389.966,6,3,2,7
389.967,7,1,1,9
389.968,9,1,1,8
389.968,8,1,0,6
389.969,7,-1,-2,5
389.969,7,1,0,6
389.97,7,4,3,6
389.971,7,6,4,4
389.971,6,6,4,2
389.972,3,4,2,0
389.972,2,4,3,0
389.973,1,6,4,-1
389.973,1,7,3,-3
389.974,1,8,4,-3
389.974,0,9,5,-4
389.975,0,7,2,-6
389.976,-2,6,2,-5
389.976,-2,5,3,-4
389.977,-1,5,2,-3
389.977,-1,3,2,-2
389.978,0,4,4,1
389.978,2,3,3,2
389.979,2,3,4,4
389.98,3,4,7,7
389.98,5,4,8,9
389.981,4,1,3,4
389.981,1,-2,-1,1
389.982,0,-2,-2,0
389.982,2,-1,-2,0
389.983,2,0,0,3
389.984,5,2,1,4
389.984,6,3,2,6
389.985,7,4,2,5
389.985,7,3,2,5
389.986,5,1,0,3
389.987,4,0,0,4
389.987,4,-1,0,7
389.988,7,0,2,8
389.988,8,2,4,10
389.989,6,0,1,8
389.989,6,1,2,6
389.99,5,1,1,4
389.991,4,2,1,2
389.991,3,2,1,1
389.992,2,2,1,0
389.992,2,5,2,0
389.993,2,7,4,-1
389.993,1,9,4,-3
389.994,0,9,5,-3
389.995,0,8,5,-4
389.995,0,8,5,-4
389.996,-2,6,3,-4
389.996,-2,6,3,-3
389.997,-1,4,2,-3
389.997,-2,3,2,-1
389.998,0,2,2,0
389.999,1,4,3,1
389.999,2,3,3,3
390,4,4,3,4
390,4,4,3,4
390.001,5,3,3,4
390.001,5,3,2,4
390.002,4,1,1,3
390.003,3,0,1,3
390.003,3,0,0,4
390.004,3,0,0,4
390.004,5,1,1,5
390.005,6,2,1,6
390.005,6,2,0,4
390.006,5,0,0,4
390.007,4,-1,0,5
390.007,5,-1,0,8
390.008,5,-1,1,9
390.008,6,0,0,8
390.009,7,1,2,7
390.009,7,2,2,5
390.01,6,2,0,2
390.011,4,1,0,0
390.011,4,4,-1,-2
390.012,5,6,1,-1
390.012,5,9,4,0
390.013,5,11,6,0
390.014,4,13,10,0
390.014,1,12,11,0
390.015,-1,7,7,-3
390.015,-3,4,3,-7
390.016,-7,1,2,-7
390.016,-5,1,2,-5
390.017,-4,2,1,-3
390.018,-2,2,1,-1
390.018,0,2,0,-2
390.019,1,4,3,2
390.019,3,5,4,4
390.02,5,6,6,5
390.02,5,4,5,6
390.021,6,4,4,6
390.022,5,2,2,4
390.022,4,1,1,3
390.023,3,0,0,4
390.023,4,0,0,5
390.024,4,0,0,4
390.025,5,0,0,4
390.025,5,0,0,3
390.026,4,0,0,4
390.026,5,1,0,5
390.027,4,-1,0,7
390.027,6,0,1,8
390.028,6,0,2,8
390.028,6,-1,1,7
390.029,6,0,2,8
390.03,7,3,2,4
390.03,6,3,1,2
390.031,4,2,-1,-1
390.031,2,4,0,-1
390.032,3,6,1,0
390.032,4,9,5,0
390.033,3,10,5,-1
390.034,0,10,7,-1
390.034,0,7,5,-3
390.035,0,8,5,-3
390.035,-1,6,4,-4
390.036,-1,7,5,-3
390.036,-1,6,4,-2
390.037,-2,3,3,-2
390.038,-1,2,2,0
390.038,0,3,3,0
390.039,1,2,3,1
390.039,1,2,2,2
390.04,3,3,3,3
390.04,3,2,1,4
390.041,4,1,1,3
390.042,3,2,1,4
390.042,4,1,1,5
390.043,5,2,2,6
390.043,6,2,1,5
390.044,6,2,0,4
390.045,5,1,0,3
390.045,4,0,0,4
390.046,5,2,2,6
390.046,6,0,0,6
390.047,5,-2,-3,4
390.047,6,-1,-4,3
390.048,6,0,-1,5
390.049,7,0,0,5
390.049,9,4,3,7
390.05,9,5,6,8
390.05,8,7,6,7
390.051,6,6,5,4
390.051,4,6,5,2
390.052,1,4,6,2
390.053,0,2,1,-3
390.053,-2,3,0,-7
390.054,-3,3,0,-9
390.054,-3,6,2,-6
390.055,-1,8,4,-4
390.055,0,9,6,-2
390.056,0,9,8,0
390.057,0,8,6,0
390.057,0,4,4,0
390.058,0,1,1,0
390.058,0,3,5,2
390.059,1,2,4,3
390.06,2,2,2,1
390.06,1,0,0,0
390.061,1,0,0,1
390.061,2,1,2,4
390.062,5,3,4,6
390.062,6,3,2,6
390.063,7,3,3,6
390.064,6,1,0,4
390.064,4,0,0,4
390.065,5,1,0,3
390.065,5,1,0,5
390.066,5,1,0,4
390.066,4,-2,-3,3
390.067,3,-3,-3,4
390.068,5,0,1,9
390.068,8,3,5,10
390.069,9,2,4,10
390.069,8,1,0,4
390.07,4,1,-1,0
390.07,3,3,2,2
390.071,3,5,3,3
390.072,4,6,4,1
390.072,3,5,4,0
390.073,3,8,5,-1
390.073,1,7,4,-3
390.074,0,7,3,-5
390.074,-1,6,0,-7
390.075,-1,7,2,-7
390.076,0,8,2,-4
390.076,0,8,3,-4
390.077,0,5,1,-4
390.077,0,3,1,-1
390.078,2,6,5,3
390.078,3,7,8,5
390.079,3,4,5,4
390.08,1,1,2,3
390.08,1,1,3,4
390.082,3,1,1,3
390.082,2,0,0,2
390.082,2,0,0,3
390.082,3,0,1,4
390.083,5,1,2,6
390.084,5,2,2,5
390.084,5,1,1,6
390.085,6,1,1,6
390.085,5,0,1,5
390.086,5,0,0,5
390.086,4,-2,0,5
390.087,4,-2,0,6
390.088,6,0,0,6
390.088,6,0,0,6
390.089,6,0,0,4
390.089,6,2,1,4
390.09,5,4,3,3
390.09,5,4,1,0
390.091,2,3,0,-1
390.092,2,6,2,0
390.092,5,9,6,1
390.093,5,11,8,0
390.093,4,11,6,-2
390.094,1,10,7,-3
390.094,0,8,6,-3
390.095,-1,6,4,-5
390.096,-3,5,4,-3
390.096,-3,3,3,-3
390.097,-3,2,2,-3
390.097,-3,0,0,-1
390.098,0,3,1,0
390.099,1,3,2,0
390.099,1,3,1,2
390.1,4,4,3,4
390.1,4,3,4,6
390.101,5,3,3,4
390.101,3,2,5,6
390.102,5,3,5,7
390.103,3,0,2,5
390.103,4,0,0,4
390.104,4,0,-3,0
390.104,2,-2,-5,-1
390.105,2,0,-2,2
390.105,5,3,2,7
390.106,8,4,4,9
390.107,7,0,1,8
390.107,7,0,0,7
390.108,7,0,0,7
390.108,6,0,0,6
390.109,8,1,1,7
390.109,7,3,3,5
390.11,6,4,3,3
390.111,4,4,1,0
390.111,3,4,2,0
390.112,1,4,2,0
390.112,2,6,4,0
390.113,1,6,4,-3
390.113,0,7,5,-2
390.114,0,9,6,-3
390.115,0,7,3,-4
390.115,-2,5,3,-6
390.116,-2,6,4,-3
390.116,-2,7,6,0
390.117,0,5,5,0
390.117,0,3,4,0
390.118,0,2,3,0
390.119,0,0,0,0
390.119,0,1,0,0
390.12,0,0,-1,0
390.12,3,2,-1,1
390.121,5,4,0,3
390.122,7,5,3,5
390.122,8,5,4,6
390.123,7,4,3,6
390.123,7,3,2,6
390.124,6,2,2,6
390.124,6,0,1,5
390.125,5,0,0,5
390.126,5,0,0,4
390.126,4,-2,-2,3
390.127,2,-4,-3,4
390.127,4,-2,-2,6
390.128,6,0,0,7
390.128,7,0,0,7
390.129,8,3,2,7
390.13,8,4,3,5
390.13,6,5,2,2
390.131,4,5,2,1
390.131,3,5,3,0
390.132,2,4,4,0
390.132,2,9,8,1
390.133,2,9,8,0
390.134,1,9,8,-2
390.134,-3,5,4,-4
390.135,-4,4,3,-5
390.135,-5,2,1,-6
390.136,-5,2,0,-5
390.136,-3,2,0,-3
390.137,0,3,0,-2
390.138,2,3,0,-1
390.138,2,6,3,1
390.139,4,7,8,6
390.139,6,8,8,6
390.14,5,4,2,3
390.141,4,2,0,0
390.141,2,1,0,1
390.142,2,1,0,1
390.142,3,1,0,3
390.143,4,3,3,7
390.143,7,4,2,7
390.144,8,3,2,5
390.144,7,2,2,6
390.145,5,2,4,7
390.146,5,0,1,4
390.146,2,-4,-2,4
390.147,1,-5,-3,4
390.147,4,-3,-1,6
390.148,4,0,0,6
390.148,5,0,1,8
390.149,8,3,4,8
390.15,8,5,4,6
390.15,6,4,3,3
390.151,3,3,0,-1
390.151,1,3,0,-3
390.152,3,6,3,0
390.152,4,10,5,0
390.153,2,10,6,-2
390.154,0,9,7,-2
390.154,0,9,6,-2
390.155,-1,7,5,-3
390.155,-2,5,3,-4
390.156,-3,5,5,-2
390.156,-3,2,2,-3
390.157,-3,0,1,0
390.158,0,2,3,1
390.158,2,3,2,1
390.159,1,1,2,1
390.159,1,3,3,3
390.16,4,4,3,4
390.161,5,3,2,4
390.161,5,4,3,4
390.162,4,2,1,3
390.162,4,1,0,4
390.163,5,2,1,4
390.163,6,2,1,5
390.164,6,2,1,5
390.165,5,1,1,5
390.165,4,0,0,5
390.166,5,0,0,4
390.166,4,-3,-3,3
390.167,3,-3,-3,4
390.167,5,0,0,6
390.168,7,1,1,8
390.169,9,4,3,8
390.169,10,6,4,8
390.17,9,6,4,5
390.17,6,5,2,2
390.171,3,4,2,0
390.171,2,4,3,0
390.172,1,4,3,-1
390.173,0,5,3,-3
390.173,-1,5,2,-5
390.174,0,7,3,-5
390.174,0,8,4,-4
390.175,0,8,5,-4
390.176,0,8,5,-2
390.176,0,7,5,-2
390.177,0,5,4,-1
390.177,-1,2,2,0
390.178,0,3,3,0
390.178,1,2,3,2
390.179,1,2,3,3
390.179,2,2,4,4
390.18,3,2,1,2
390.181,2,0,0,3
390.181,3,0,0,4
390.182,6,3,2,5
390.182,6,3,2,6
390.183,6,2,2,6
390.184,6,2,1,4
390.184,4,1,0,3
390.185,3,0,0,3
390.185,3,0,0,3
390.186,3,0,0,3
390.186,3,-3,-2,3
390.187,4,-2,-2,4
390.188,6,1,0,7
390.188,8,2,1,8
390.189,9,4,4,8
390.189,9,5,5,8
390.19,7,6,7,9
390.19,7,8,7,5
390.191,3,3,3,0
390.192,0,1,2,-1
390.192,0,4,3,-1
390.193,0,4,1,-5
390.193,-1,5,0,-6
390.194,-1,6,0,-7
390.194,0,7,0,-7
390.195,0,8,0,-6
390.196,0,8,2,-5
390.196,1,10,8,0
390.197,2,9,10,5
390.197,3,5,6,2
390.198,0,3,2,0
390.198,0,2,3,2
390.199,0,2,5,5
390.2,1,0,3,4
390.2,1,0,0,2
390.201,1,0,0,2
390.201,2,0,1,2
390.202,3,0,0,3
390.202,5,1,0,3
390.203,4,1,1,5
390.204,5,0,0,4
390.204,6,1,1,6
390.205,6,1,1,5
390.205,7,2,2,6
390.206,6,0,0,6
390.206,5,-1,0,7
390.207,6,-1,0,7
390.208,6,0,0,6
390.208,5,0,0,6
390.209,7,3,2,7
390.209,7,3,3,5
390.21,6,5,4,3
390.211,5,4,2,1
390.211,2,3,2,0
390.212,2,6,3,0
390.212,2,8,4,-1
390.213,1,8,4,-3
390.213,0,8,5,-4
390.214,-2,6,3,-5
390.215,-1,8,4,-5
390.215,-1,7,4,-4
390.216,-2,5,1,-4
390.216,-2,5,3,-3
390.217,-1,4,3,0
390.217,0,4,4,1
390.218,1,5,4,2
390.219,1,4,3,2
390.219,1,3,3,2
390.22,2,2,2,3
390.22,3,2,2,4
390.221,4,2,2,4
390.221,4,2,2,4
390.222,4,1,0,4
390.223,4,0,0,4
390.223,4,0,0,4
390.224,5,1,1,5
390.224,6,2,2,6
390.225,7,3,2,6
390.225,5,1,1,5
390.226,4,0,0,4
390.227,3,-3,-1,5
390.227,4,-2,0,6
390.228,5,-1,0,6
390.228,6,0,0,6
390.229,7,3,1,6
390.229,6,4,1,3
390.23,6,5,4,3
390.231,6,6,2,1
390.231,3,5,3,0
390.232,3,7,4,1
390.232,3,8,5,-1
390.233,1,8,4,-3
390.233,-1,7,3,-5
390.234,0,7,4,-5
390.235,-1,7,5,-4
390.235,-1,6,4,-4
390.236,-3,4,3,-3
390.236,-2,4,3,-1
390.237,0,4,2,0
390.237,0,3,1,0
390.238,0,2,2,1
390.239,2,3,3,2
390.239,3,4,3,3
390.24,3,2,2,5
390.24,4,3,3,5
390.241,4,2,3,5
390.241,5,2,2,5
390.242,4,0,0,3
390.243,4,0,-1,3
390.243,5,0,-4,1
390.244,6,1,-2,2
390.244,7,3,0,4
390.245,8,5,4,8
390.246,9,4,3,7
390.246,6,-1,0,6
390.247,4,0,3,9
390.247,4,0,4,10
390.248,4,-2,3,9
390.248,4,0,4,8
390.249,4,-1,0,4
390.25,2,0,1,2
390.25,1,1,2,1
390.251,1,2,1,0
390.251,0,1,0,-2
390.252,2,5,1,-1
390.252,4,8,3,-3
390.253,3,10,3,-4
390.254,2,11,4,-4
390.254,2,12,7,-2
390.255,1,10,6,-3
390.255,0,9,6,-2
390.256,-1,6,5,-2
390.257,-1,5,4,-1
390.257,0,3,4,0
390.258,0,2,2,0
390.258,0,1,0,-1
390.259,-1,0,0,0
390.259,2,2,2,2
390.26,3,2,2,4
390.26,5,3,2,4
390.261,5,4,2,3
390.262,3,2,2,4
390.262,5,3,3,6
390.263,5,2,1,5
390.263,5,0,0,4
390.264,4,1,1,4
390.265,5,0,-1,3
390.265,5,1,0,3
390.266,5,0,0,6
390.266,5,-1,-3,3
390.267,6,0,-2,6
390.267,9,4,4,10
390.268,8,1,4,11
390.269,9,3,5,9
390.269,6,2,4,6
390.271,4,3,5,5
390.271,1,0,0,0
390.271,-1,0,-1,-2
390.271,-1,1,0,-2
390.272,1,7,3,0
390.272,2,9,5,-1
390.273,2,10,6,-2
390.274,0,9,6,-2
390.274,0,8,5,-3
390.275,0,8,5,-3
390.275,-1,7,5,-3
390.276,-1,5,4,-3
390.277,-3,1,0,-4
390.277,-1,1,0,-1
390.278,0,4,3,0
390.278,1,4,3,2
390.279,4,4,4,3
390.279,4,3,3,4
390.28,4,2,0,1
390.281,4,3,2,3
390.281,4,2,3,5
390.282,5,2,3,5
390.282,5,1,1,6
390.283,6,1,0,5
390.283,6,0,0,5
390.284,4,0,0,3
390.285,4,0,0,5
390.285,4,1,1,5
390.286,4,0,0,5
390.286,4,-2,0,4
390.287,3,-1,0,5
390.288,5,0,0,7
390.288,6,0,0,6
390.289,7,3,2,7
390.289,9,6,4,5
390.29,7,6,5,4
390.29,3,3,2,2
390.291,3,3,2,0
390.291,1,4,2,0
390.292,2,6,1,-3
390.293,2,8,3,-3
390.293,2,11,5,-3
390.294,0,9,6,-2
390.294,0,9,6,-2
390.295,-1,7,4,-4
390.296,-2,5,2,-4
390.296,-2,4,3,-2
390.297,-2,3,4,0
390.297,0,4,3,1
390.298,0,3,2,0
390.298,0,2,1,1
390.299,0,2,1,1
390.3,2,2,3,4
390.3,4,2,2,3
390.301,4,1,1,3
390.301,5,2,1,4
390.302,5,1,0,3
390.302,5,1,0,3
390.303,5,2,0,4
390.304,6,2,1,5
390.304,6,3,2,6
390.305,7,5,5,8
390.305,7,4,5,9
390.306,5,-2,0,5
390.306,1,-5,-2,4
390.307,1,-4,-1,5
390.308,3,-4,-2,4
390.308,5,-1,-2,4
390.309,8,3,3,7
390.309,8,6,6,7
390.31,7,6,5,4
390.31,5,5,3,2
390.311,2,4,2,0
390.312,1,5,4,-1
390.312,1,7,4,-1
390.313,1,8,3,-5
390.313,0,8,3,-5
390.314,-1,7,3,-4
390.314,0,9,6,-3
390.315,0,7,6,-1
390.316,0,7,4,-3
390.316,-2,5,2,-2
390.317,0,2,0,-2
390.317,0,1,-1,-2
390.318,1,3,1,0
390.318,3,5,4,3
390.319,4,4,5,6
390.32,5,4,4,5
390.32,4,2,3,4
390.321,3,1,1,3
390.321,3,1,1,3
390.322,4,1,1,5
390.322,5,2,1,4
390.323,4,1,1,5
390.324,6,1,1,5
390.324,4,0,1,5
390.325,4,-1,-1,2
390.325,3,-1,-1,2
390.326,3,-2,-1,5
390.327,5,-1,0,8
390.327,7,0,2,8
390.328,6,0,1,7
390.328,9,2,2,8
390.329,8,2,1,5
390.329,6,2,0,1
390.33,5,4,0,0
390.331,5,7,3,1
390.331,5,8,5,2
390.332,5,8,6,0
390.332,2,8,5,-1
390.333,0,8,6,-2
390.333,-1,7,5,-3
390.334,-2,7,8,-1
390.335,-3,5,7,-3
390.335,-5,3,4,-3
390.336,-4,3,4,-3
390.336,-3,1,0,-4
390.337,-3,0,0,-3
390.337,-1,1,1,0
390.338,0,2,1,1
390.339,3,3,2,2
390.339,4,4,0,1
390.34,5,3,0,2
390.34,6,5,2,4
390.341,7,7,5,8
390.341,8,6,5,8
390.342,7,3,3,7
390.343,6,1,0,3
390.343,3,-2,-4,0
390.344,3,0,-2,1
390.344,4,2,0,4
390.345,6,3,3,7
390.346,7,3,3,9
390.346,6,0,0,7
390.347,5,-2,0,6
390.347,4,0,1,7
390.348,4,-1,1,7
390.348,5,0,1,6
390.349,5,1,0,3
390.35,5,4,1,2
390.35,5,5,2,0
390.351,2,5,3,0
390.351,2,4,3,0
390.352,4,9,5,0
390.352,2,8,5,-3
390.353,0,7,4,-4
390.354,-1,7,4,-4
390.354,-1,7,5,-3
390.355,-1,8,5,-3
390.355,-1,6,4,-3
390.356,-1,6,3,-2
390.356,-1,2,1,-2
390.357,-1,3,3,0
390.357,1,2,1,0
390.358,1,2,1,0
390.359,1,3,2,3
390.359,3,3,3,3
390.36,5,4,4,5
390.36,6,4,4,5
390.361,6,4,3,5
390.362,4,1,2,4
390.362,3,0,2,4
390.363,3,0,3,6
390.363,4,0,0,4
390.364,4,0,0,4
390.364,4,0,0,2
390.365,2,-1,-2,2
390.366,3,-1,-2,4
390.366,5,-1,-3,4
390.367,7,-1,-3,5
390.367,9,2,0,6
390.368,10,4,3,9
390.368,10,5,4,9
390.369,8,5,5,6
390.37,7,6,5,5
390.37,5,4,2,1
390.371,2,3,1,0
390.371,0,3,2,0
390.372,1,7,5,-1
390.372,1,8,6,-2
390.373,0,8,5,-3
390.374,-1,5,3,-5
390.374,-3,5,2,-5
390.375,-3,4,3,-4
390.375,-1,6,4,-1
390.376,0,6,4,-1
390.377,0,4,3,0
390.377,0,3,4,1
390.378,0,2,3,1
390.378,0,2,2,2
390.379,1,3,3,2
390.379,2,1,2,3
390.38,2,0,1,3
390.381,4,2,1,5
390.381,5,3,3,6
390.382,6,2,2,6
390.382,7,2,1,5
390.383,6,1,1,5
390.383,5,1,0,4
390.384,4,0,0,3
390.385,5,1,0,3
390.385,3,0,-1,3
390.386,3,-2,-2,3
390.386,4,-1,-1,5
390.387,6,1,3,9
390.387,8,1,4,9
390.388,7,3,5,9
390.389,6,1,2,6
390.389,4,1,1,4
390.39,4,3,2,3
390.39,4,5,4,1
390.391,3,6,3,1
390.391,2,7,4,0
390.392,2,7,4,-2
390.393,0,6,2,-5
390.393,-2,6,2,-6
390.394,-2,7,5,-3
390.394,0,10,7,0
390.395,0,7,5,-3
390.395,-1,4,2,-5
390.396,-2,3,1,-3
390.397,-1,3,1,0
390.397,1,4,2,0
390.398,2,5,3,1
390.398,1,3,2,2
390.399,2,4,6,5
390.399,4,3,4,5
390.4,4,1,0,3
390.401,3,0,-1,1
390.401,2,0,-1,2
390.402,4,1,0,3
390.402,5,1,-1,3
390.403,6,2,1,6
390.404,9,5,4,8
390.404,9,5,4,8
390.405,7,5,7,9
390.405,5,0,3,6
390.406,1,-4,-2,4
390.406,1,-4,-2,4
390.407,3,-2,-1,3
390.407,3,-3,-3,3
390.408,4,0,0,4
390.409,6,3,3,7
390.409,8,5,4,4
390.41,7,7,4,4
390.41,5,7,4,3
390.411,3,6,4,2
390.411,3,7,4,0
390.412,2,6,1,-4
390.413,0,6,1,-6
390.413,-1,7,4,-4
390.414,-1,8,5,-3
390.414,-1,7,3,-4
390.415,-1,7,4,-3
390.415,0,7,4,-1
390.416,-1,4,3,-1
390.417,0,3,3,0
390.417,0,4,5,3
390.418,2,3,3,1
390.418,2,1,2,2
390.419,2,2,2,2
390.42,3,2,3,4
390.42,3,1,2,4
390.421,3,1,2,4
390.421,3,1,2,5
390.422,5,2,2,5
390.422,5,1,0,4
390.423,4,0,0,2
390.424,4,0,0,3
390.424,5,1,0,4
390.425,5,2,0,4
390.425,5,2,2,7
390.426,6,0,1,8
390.426,7,0,0,8
390.427,7,2,3,9
390.428,7,0,2,7
390.428,6,1,1,5
390.429,5,2,2,5
390.429,4,3,3,3
390.43,4,4,2,1
390.431,2,3,2,0
390.431,0,2,0,-2
390.432,1,5,0,-4
390.432,1,7,1,-5
390.433,2,10,5,-3
390.433,2,10,6,-1
390.434,1,10,7,-2
390.435,0,9,6,-3
390.435,0,7,5,-2
390.436,-1,5,4,-2
390.436,-2,1,2,-1
390.437,-1,1,2,0
390.437,0,2,2,0
390.438,1,2,1,0
390.439,2,2,2,1
390.439,2,2,2,3
390.44,4,3,3,5
390.44,5,3,2,4
390.441,5,2,0,2
390.441,3,2,0,3
390.442,5,2,0,5
390.443,5,2,2,6
390.443,5,1,2,5
390.444,6,2,2,6
390.444,6,4,4,8
390.445,7,1,1,5
390.445,3,-3,-3,2
390.446,2,-4,-4,3
390.447,3,-2,-1,6
390.447,6,0,2,9
390.448,7,1,4,9
390.448,7,2,4,7
390.449,6,2,3,5
390.449,6,6,5,4
390.45,3,4,3,1
390.451,1,2,0,0
390.451,1,3,1,-2
390.452,1,8,4,-1
390.452,2,8,4,-3
390.453,1,9,4,-5
390.453,-1,6,2,-5
390.454,0,8,4,-4
390.455,0,8,5,-2
390.455,0,7,4,-3
390.456,-1,5,3,-1
390.456,-2,3,2,0
390.457,0,3,2,1
390.457,1,3,4,2
390.458,2,3,3,1
390.459,2,3,2,1
390.459,2,1,2,3
390.46,4,3,3,4
390.46,5,2,1,4
390.461,5,2,1,3
390.461,3,0,0,3
390.462,3,0,1,6
390.463,5,2,2,6
390.463,6,2,2,6
390.464,6,1,1,5
390.464,5,0,0,4
390.465,5,0,-1,3
390.465,3,-3,-3,3
390.466,4,-2,-3,5
390.467,7,0,0,7
390.467,7,0,1,7
390.468,7,3,4,8
390.468,7,3,4,7
390.469,6,3,4,5
390.469,4,4,3,2
390.47,2,3,3,2
390.471,1,4,4,1
390.471,1,5,2,-1
390.472,0,5,1,-4
390.472,-1,5,2,-5
390.473,0,10,5,-2
390.473,0,9,5,-2
390.474,0,9,6,-2
390.475,0,7,4,-3
390.475,-1,4,1,-4
390.476,-1,4,2,-2
390.476,0,3,1,0
390.477,1,3,1,0
390.478,2,3,1,2
390.478,2,3,1,3
390.479,3,2,3,4
390.479,4,3,2,4
390.48,4,3,2,4
390.48,4,2,3,4
390.481,4,2,2,4
390.482,3,0,0,3
390.482,3,0,0,3
390.483,3,1,1,4
390.483,5,2,1,4
390.484,4,1,2,5
390.485,5,2,1,5
390.485,5,0,-2,2
390.486,3,-3,-4,3
390.486,6,0,0,7
390.487,9,3,3,10
390.487,8,1,2,10
390.488,8,2,3,8
390.489,6,2,4,7
390.489,5,2,4,4
390.49,3,3,5,3
390.49,1,2,3,1
390.491,0,0,-1,-2
390.491,0,5,1,-2
390.492,1,6,1,-5
390.492,0,8,3,-4
390.493,0,9,4,-3
390.494,0,9,5,-4
390.494,0,8,6,-2
390.495,0,8,6,-2
390.495,-1,5,4,-2
390.496,-2,2,3,0
390.497,0,3,4,1
390.497,1,2,1,0
390.498,1,1,0,0
390.498,1,1,1,2
390.499,2,3,2,4
390.499,5,4,3,5
390.5,5,4,3,5
390.5,5,3,2,5
390.501,5,2,3,6
390.502,4,1,1,5
390.502,4,0,0,4
390.503,5,0,0,5
390.503,5,1,0,4
390.504,5,1,0,3
390.505,4,0,-2,2
390.505,4,0,-1,3
390.506,3,0,0,6
390.506,5,-1,1,8
390.507,6,0,2,7
390.507,6,0,0,6
390.508,8,2,0,4
390.509,7,4,2,5
390.509,8,5,0,0
390.51,5,5,1,0
390.51,4,6,4,1
390.511,4,7,5,1
390.511,4,8,5,0
390.512,2,8,5,-2
390.513,0,9,4,-3
390.513,0,8,5,-2
390.514,0,8,8,-1
390.514,-2,7,7,0
390.515,-4,2,4,-3
390.515,-4,1,2,-4
390.516,-5,0,0,-2
390.517,-4,0,0,-2
390.517,-2,0,-2,-2
390.518,0,1,-2,-1
390.518,3,5,3,4
390.519,7,7,6,7
390.52,9,9,8,8
390.52,7,7,7,7
390.521,6,4,5,7
390.521,5,2,3,5
390.522,3,0,1,4
390.522,0,-2,-1,2
390.523,1,-2,-3,2
390.524,4,0,-2,2
390.524,5,1,0,4
390.525,5,0,-2,2
390.525,3,-2,-5,2
390.526,5,0,-1,6
390.526,9,3,3,10
390.527,11,5,5,11
390.528,10,3,3,8
390.528,8,2,2,5
390.529,6,2,2,4
390.529,5,4,4,3
390.53,3,4,3,1
390.53,0,3,3,1
390.531,0,4,2,-1
390.532,0,5,3,-2
390.532,0,6,4,-3
390.533,0,6,3,-4
390.533,-1,6,2,-6
390.534,-1,7,4,-4
390.534,-1,6,3,-3
390.535,0,7,3,-2
390.536,0,6,4,0
390.536,0,4,2,0
390.537,0,4,5,2
390.537,2,4,4,2
390.538,2,3,4,3
390.538,2,1,2,2
390.539,1,1,1,3
390.54,4,2,3,4
390.54,4,2,2,5
390.541,5,1,0,2
