Program Time [s],data 0,data 1,data 2,data 3
372.555,6,-1,0,8
372.556,8,2,2,7
372.556,8,4,3,7
372.557,8,5,5,5
372.557,6,7,6,3
372.558,3,5,4,1
372.558,1,2,2,-1
372.559,1,6,4,-1
372.559,0,7,4,-3
372.56,0,8,3,-5
372.561,-2,7,1,-8
372.561,-2,8,3,-6
372.562,-1,9,4,-5
372.562,0,9,6,-3
372.563,0,9,6,-2
372.564,-1,5,3,-2
372.564,-1,3,3,0
372.565,0,3,2,0
372.565,0,3,3,1
372.566,1,3,4,3
372.566,2,2,4,4
372.567,4,2,2,4
372.568,3,2,2,4
372.568,3,1,2,5
372.569,4,0,1,5
372.569,4,0,-1,3
372.57,4,-1,-2,2
372.57,5,0,0,5
372.571,7,3,2,7
372.572,7,2,1,6
372.572,7,2,3,8
372.573,7,0,-1,5
372.573,5,-2,-3,4
372.574,5,-3,-3,5
372.574,6,-1,-1,7
372.575,7,0,0,8
372.576,10,3,3,9
372.576,10,5,3,6
372.577,9,6,3,4
372.577,5,7,4,3
372.578,3,6,5,2
372.578,2,5,3,0
372.579,1,7,4,-3
372.58,0,7,3,-6
372.58,-2,8,4,-6
372.581,-3,7,4,-5
372.581,-2,9,5,-5
372.582,-3,7,4,-5
372.582,-4,4,2,-5
372.583,-3,4,1,-5
372.584,-2,2,2,-2
372.584,0,4,3,1
372.585,1,4,1,0
372.585,3,3,0,0
372.586,3,4,3,2
372.586,5,5,4,5
372.587,6,5,5,6
372.588,5,4,6,7
372.588,6,4,7,9
372.589,3,0,4,6
372.589,2,-1,2,6
372.59,1,-3,0,4
372.59,2,-4,-3,2
372.591,2,-2,-3,1
372.592,3,-2,-2,3
372.592,5,0,0,6
372.593,6,0,0,8
372.593,8,0,0,9
372.594,8,0,1,9
372.595,8,0,0,8
372.595,8,1,1,8
372.596,8,3,3,7
372.596,7,3,3,5
372.597,7,6,4,3
372.597,4,5,2,0
372.598,2,3,1,0
372.599,2,6,3,-1
372.599,2,8,4,-2
372.6,1,10,8,-1
372.6,0,10,7,-1
372.601,0,8,5,-3
372.602,-3,6,4,-6
372.602,-5,4,3,-7
372.603,-5,2,0,-7
372.603,-5,1,0,-7
372.604,-4,2,-1,-5
372.604,0,4,0,-3
372.605,3,7,4,2
372.605,4,7,5,4
372.606,6,7,5,5
372.607,6,6,5,5
372.607,6,6,5,6
372.608,5,3,3,6
372.608,5,1,1,4
372.609,4,0,0,4
372.61,4,0,-1,4
372.61,4,0,0,4
372.611,5,0,1,6
372.611,5,0,1,6
372.612,7,1,1,6
372.612,5,0,0,6
372.613,2,-5,-4,6
372.613,4,-4,-3,6
372.614,5,-2,-2,6
372.615,7,-1,-1,6
372.615,10,2,1,6
372.616,9,4,3,6
372.616,9,6,3,4
372.617,7,6,3,3
372.618,5,7,5,1
372.618,2,7,6,1
372.619,3,7,8,0
372.619,0,7,6,-2
372.62,-2,6,4,-5
372.62,-4,7,6,-5
372.621,-4,7,6,-5
372.621,-3,6,4,-6
372.622,-4,5,3,-6
372.623,-3,6,4,-4
372.623,-3,4,4,-2
372.624,-1,2,3,-1
372.624,0,2,2,0
372.625,0,2,1,0
372.626,2,3,2,2
372.626,3,4,2,4
372.627,4,3,3,4
372.627,5,4,3,5
372.628,6,3,2,5
372.629,6,3,2,5
372.629,6,1,2,6
372.63,5,0,0,5
372.63,4,0,0,5
372.631,5,0,0,5
372.631,5,0,0,5
372.632,6,0,1,6
372.632,4,-1,0,5
372.633,3,-3,-2,6
372.634,5,-4,-3,5
372.634,7,-1,-3,4
372.635,6,-1,-4,4
372.635,10,4,1,7
372.636,11,7,6,9
372.636,10,8,6,7
372.637,8,8,5,3
372.638,4,7,6,1
372.638,1,4,5,0
372.639,0,6,7,0
372.639,0,6,4,-3
372.64,-2,6,3,-6
372.641,-3,7,3,-6
372.641,-3,6,3,-7
372.642,-5,5,2,-7
372.642,-4,5,3,-5
372.643,-3,6,5,-3
372.643,-1,5,3,-1
372.644,0,4,3,0
372.645,1,4,3,1
372.645,2,4,3,2
372.646,2,3,2,3
372.646,4,3,1,3
372.647,4,3,2,3
372.647,4,2,3,5
372.648,4,1,1,4
372.649,5,2,3,7
372.649,6,1,2,6
372.65,7,1,2,4
372.65,3,-1,0,4
372.651,3,-1,-1,4
372.651,4,0,-1,4
372.652,5,0,0,5
372.652,5,-2,-3,5
372.653,5,-2,-2,6
372.654,8,0,2,10
372.654,10,3,5,13
372.655,9,0,1,8
372.655,8,0,0,5
372.656,6,1,0,3
372.657,6,3,1,1
372.657,4,4,2,0
372.658,2,5,2,0
372.658,3,7,3,-1
372.659,3,9,5,-2
372.659,1,9,5,-3
372.66,0,10,6,-5
372.661,-1,8,6,-4
372.661,-2,10,7,-3
372.662,-3,8,7,-3
372.662,-3,6,6,-3
372.663,-4,2,3,-5
372.663,-5,0,0,-4
372.664,-3,0,1,-1
372.665,0,4,4,0
372.665,0,1,2,1
372.666,2,2,4,4
372.666,3,3,4,5
372.667,5,3,4,5
372.668,5,2,1,5
372.668,5,1,0,3
372.669,4,-1,-2,2
372.669,5,0,0,5
372.67,7,2,0,6
372.67,8,3,1,6
372.671,7,1,0,6
372.671,7,2,0,5
372.672,8,1,1,6
372.673,6,-1,-1,6
372.673,6,-2,-1,7
372.674,6,-2,0,7
372.674,6,0,1,9
372.675,7,0,3,9
372.675,7,1,2,6
372.676,5,1,0,2
372.677,4,3,1,0
372.677,3,3,1,0
372.678,2,5,3,0
372.678,3,7,5,0
372.679,3,10,6,0
372.68,2,11,7,-2
372.68,0,8,5,-4
372.681,-1,8,5,-5
372.681,-2,7,4,-5
372.682,-3,6,4,-6
372.682,-3,4,2,-5
372.683,-2,4,2,-4
372.684,-3,2,2,-1
372.684,0,3,2,0
372.685,0,4,4,1
372.685,2,4,4,3
372.686,3,3,4,4
372.686,4,4,4,4
372.687,3,1,2,4
372.688,3,1,2,4
372.688,3,0,0,4
372.689,4,0,0,4
372.689,4,0,0,5
372.69,5,0,-1,5
372.69,5,0,0,5
372.691,7,0,-1,3
372.692,6,0,-1,5
372.692,7,0,-1,6
372.693,7,0,0,8
372.693,8,0,1,10
372.694,9,2,2,10
372.694,9,0,1,8
372.695,8,1,1,7
372.696,6,2,1,5
372.696,6,4,2,3
372.697,4,4,3,3
372.697,4,6,4,0
372.698,1,3,2,-1
372.698,0,6,3,-2
372.699,0,6,2,-6
372.7,0,8,4,-5
372.7,0,10,7,-3
372.701,-1,10,7,-3
372.701,0,8,6,-3
372.702,-2,6,3,-4
372.702,-2,5,3,-5
372.703,-2,3,2,-2
372.704,-2,2,1,-2
372.704,-2,2,2,0
372.705,0,2,4,1
372.705,2,4,5,2
372.706,2,4,4,3
372.707,4,2,2,3
372.707,3,1,1,4
372.708,4,1,2,5
372.708,4,1,3,6
372.709,5,2,1,6
372.709,6,1,0,5
372.71,6,0,0,6
372.711,7,1,0,5
372.711,6,1,0,5
372.712,6,1,0,4
372.712,5,0,0,6
372.713,4,-2,-2,6
372.713,6,-1,0,8
372.714,7,0,0,8
372.715,6,-1,0,8
372.715,8,1,1,7
372.716,7,2,2,5
372.716,6,4,3,3
372.717,5,6,4,2
372.717,3,5,1,0
372.718,2,3,-1,-3
372.719,3,8,2,-4
372.719,2,10,6,-3
372.72,1,12,8,-3
372.72,0,10,8,-2
372.721,0,10,7,-2
372.721,-2,8,6,-3
372.722,-4,6,6,-3
372.723,-4,3,4,-3
372.723,-5,0,0,-4
372.724,-4,0,0,-1
372.724,0,2,0,-1
372.725,0,1,1,0
372.725,1,2,3,2
372.726,4,4,5,6
372.727,6,5,5,7
372.727,6,3,2,4
372.728,4,1,0,2
372.728,3,0,0,3
372.729,3,0,1,6
372.729,6,1,1,7
372.73,8,2,1,6
372.731,6,1,1,6
372.731,6,1,0,5
372.732,5,0,0,6
372.732,5,-1,-1,6
372.733,5,-2,-1,7
372.733,6,-1,0,8
372.734,7,0,0,8
372.735,7,0,0,8
372.735,8,3,4,8
372.736,8,4,3,6
372.736,6,4,3,2
372.737,3,4,2,0
372.737,2,4,2,0
372.738,2,5,2,-2
372.739,1,6,2,-3
372.739,1,9,4,-4
372.74,0,9,3,-7
372.741,-1,8,2,-7
372.741,0,11,5,-4
372.742,0,9,6,-4
372.742,-1,9,7,-1
372.743,-1,7,6,-1
372.743,-2,2,2,-2
372.744,-2,0,0,-3
372.744,0,3,1,0
372.745,1,4,4,2
372.746,2,3,3,3
372.746,4,3,3,4
372.747,4,3,3,4
372.747,3,1,1,4
372.748,3,0,0,3
372.748,3,0,0,5
372.749,4,0,1,7
372.75,6,2,1,6
372.75,6,2,2,7
372.751,6,1,2,7
372.751,5,0,0,5
372.752,4,-2,-1,4
372.753,3,-4,-4,4
372.753,4,-3,-3,6
372.754,6,-1,-1,7
372.754,8,0,0,9
372.755,10,4,4,10
372.755,10,5,5,9
372.756,8,5,4,6
372.756,5,4,3,1
372.757,2,3,1,0
372.758,1,3,2,-1
372.758,0,4,2,-3
372.759,0,5,2,-4
372.759,0,8,3,-5
372.76,0,10,5,-4
372.76,0,10,5,-5
372.761,-1,8,5,-5
372.762,-2,7,4,-4
372.762,-2,7,4,-3
372.763,-2,5,4,-2
372.763,-2,4,3,-1
372.764,0,3,3,0
372.764,1,4,3,0
372.765,1,2,4,2
372.766,2,3,3,3
372.766,3,3,2,3
372.767,4,2,2,4
372.767,4,1,1,4
372.768,3,0,0,3
372.768,4,1,0,5
372.769,5,1,0,5
372.77,6,0,0,6
372.77,6,1,0,5
372.771,6,1,0,5
372.771,6,1,0,6
372.772,6,1,0,6
372.772,4,-3,-2,5
372.773,5,-3,-1,7
372.774,7,0,0,8
372.774,6,-1,0,7
372.775,8,3,2,7
372.775,7,3,2,6
372.776,7,5,4,4
372.777,6,5,3,2
372.777,4,5,4,2
372.778,2,4,3,-1
372.778,1,6,3,-1
372.779,0,7,4,-3
372.779,0,9,5,-4
372.78,0,9,5,-5
372.781,-2,7,5,-5
372.781,-2,8,5,-5
372.782,-2,7,5,-5
372.782,-3,7,4,-4
372.783,-2,3,2,-2
372.783,-1,2,3,-1
372.784,0,3,2,0
372.785,0,2,2,2
372.785,2,3,3,3
372.786,4,3,3,4
372.786,4,2,2,5
372.787,5,1,2,5
372.788,4,0,1,4
372.788,4,0,0,3
372.789,4,0,0,3
372.789,3,0,0,4
372.79,5,1,0,4
372.79,5,1,1,5
372.791,6,3,1,5
372.792,6,2,1,6
372.792,5,0,0,6
372.793,3,-3,-2,7
372.793,7,-1,-1,7
372.794,8,0,0,8
372.794,8,0,0,8
372.795,10,4,3,9
372.795,9,4,2,5
372.796,7,5,3,4
372.797,5,5,4,2
372.797,3,5,4,1
372.798,2,5,4,0
372.798,2,7,4,-2
372.799,0,6,4,-4
372.8,-1,7,4,-7
372.8,-5,5,3,-7
372.801,-4,6,4,-6
372.801,-3,7,4,-5
372.802,-2,7,4,-3
372.802,-1,6,4,-3
372.803,-1,3,2,-2
372.804,-1,2,3,0
372.804,0,4,5,2
372.805,2,2,3,2
372.805,3,3,3,4
372.806,5,4,3,3
372.806,4,2,3,4
372.807,4,2,1,4
372.808,4,1,0,3
372.808,3,0,0,5
372.809,6,1,0,6
372.809,6,0,0,4
372.81,5,0,0,5
372.81,6,1,0,5
372.811,6,1,0,5
372.812,5,0,0,5
372.812,5,-2,-1,7
372.813,6,-2,0,9
372.813,7,0,2,10
372.814,8,0,2,10
372.815,8,0,2,9
372.815,9,4,5,8
372.816,6,2,2,2
372.816,4,1,-2,-2
372.817,1,2,-2,-3
372.817,2,4,-2,-4
372.818,2,7,1,-3
372.819,5,11,4,-3
372.819,3,12,8,0
372.82,3,15,11,0
372.82,0,12,11,0
372.821,0,12,12,0
372.821,-4,6,6,-4
372.822,-7,1,1,-7
372.823,-8,-1,-1,-8
372.823,-7,-1,-2,-6
372.824,-4,-1,0,-2
372.824,0,1,1,1
372.825,3,5,4,5
372.825,7,7,6,6
372.826,7,6,5,5
372.827,5,3,2,4
372.827,3,1,1,4
372.828,4,1,1,6
372.828,5,1,2,6
372.829,5,0,0,4
372.829,5,-1,-2,4
372.83,5,0,-1,5
372.831,6,1,0,6
372.831,7,3,1,6
372.832,7,4,2,6
372.832,5,0,0,6
372.833,5,-2,0,7
372.833,5,-1,1,8
372.834,5,-2,-1,6
372.835,6,0,0,5
372.835,7,2,0,4
372.836,7,5,1,3
372.836,6,6,3,3
372.837,5,7,7,5
372.837,5,8,6,3
372.838,3,7,6,0
372.839,0,5,3,-4
372.839,-2,7,5,-4
372.84,-2,6,5,-4
372.84,-3,6,3,-6
372.841,-3,7,4,-6
372.842,-3,6,4,-4
372.842,-2,5,3,-4
372.843,-3,4,3,-3
372.843,-3,1,2,-1
372.844,0,3,3,1
372.844,3,5,4,2
372.845,2,3,2,2
372.846,3,5,4,4
372.846,4,3,4,5
372.847,5,3,3,5
372.847,5,2,2,3
372.848,4,1,1,3
372.848,3,0,0,5
372.849,5,1,2,7
372.849,6,1,1,7
372.85,6,1,1,6
372.851,5,0,0,5
372.851,5,0,0,5
372.852,4,-1,-1,5
372.852,3,-3,-2,6
372.853,5,-3,-1,7
372.853,7,-1,-2,7
372.854,7,-2,-4,5
372.855,9,4,0,6
372.855,9,5,4,8
372.856,10,8,6,7
372.856,9,6,4,3
372.857,5,5,1,0
372.858,1,4,0,-2
372.858,1,6,3,-3
372.859,0,8,4,-4
372.859,-1,8,6,-4
372.86,-1,9,6,-4
372.86,-2,8,6,-5
372.861,-2,7,4,-5
372.862,-4,5,3,-6
372.862,-4,6,4,-3
372.863,-3,4,4,-1
372.863,-1,3,3,0
372.864,0,4,4,1
372.864,1,2,4,2
372.865,1,2,3,3
372.866,3,3,3,5
372.866,3,1,2,4
372.867,4,1,1,4
372.867,4,1,1,4
372.868,4,0,0,4
372.868,4,0,-1,4
372.869,6,0,-1,4
372.87,5,0,0,3
372.87,6,2,2,6
372.871,6,2,2,7
372.871,8,4,3,6
372.872,7,0,0,6
372.873,5,-2,-1,6
372.873,4,-3,-1,7
372.874,6,-1,0,7
372.874,6,0,0,7
372.875,7,2,2,6
372.875,6,3,2,4
372.876,6,4,2,2
372.877,5,6,3,2
372.877,3,5,4,1
372.878,3,5,3,0
372.878,2,7,5,-1
372.879,1,8,5,-3
372.879,0,8,5,-5
372.88,-2,7,4,-5
372.881,-2,8,5,-5
372.881,-3,7,4,-5
372.882,-3,5,4,-5
372.882,-2,6,4,-4
372.883,-2,5,5,-1
372.883,0,4,6,1
372.884,1,5,5,1
372.885,0,2,2,1
372.885,0,1,2,2
372.886,3,3,2,2
372.886,2,1,2,3
372.887,2,0,0,3
372.887,4,1,0,2
372.888,4,1,-1,3
372.889,6,2,0,4
372.889,6,1,0,5
372.89,8,3,0,5
372.89,9,4,2,6
372.891,10,4,2,7
372.892,9,3,1,6
372.892,6,0,0,8
372.893,5,-1,2,9
372.893,5,-1,4,11
372.894,4,-2,3,10
372.894,4,-3,0,7
372.895,3,-2,1,5
372.895,3,-2,-2,1
372.896,3,0,-1,0
372.897,3,2,-1,-1
372.897,3,5,0,-2
372.898,5,10,3,0
372.898,6,14,8,0
372.899,5,14,9,0
372.899,2,14,10,-1
372.9,0,9,7,-3
372.901,-3,6,3,-6
372.901,-5,3,2,-8
372.902,-5,3,2,-5
372.902,-5,2,2,-2
372.903,-2,2,2,-1
372.904,0,4,3,0
372.904,0,3,2,1
372.905,2,3,3,3
372.905,2,3,3,3
372.906,5,4,4,5
372.906,6,4,3,4
372.907,3,1,0,1
372.908,2,0,0,2
372.908,3,0,0,3
372.909,4,0,0,5
372.909,6,1,1,7
372.91,6,1,2,7
372.91,7,2,1,7
372.911,6,1,0,5
372.912,5,-1,-1,4
372.912,4,-3,-1,7
372.913,6,-2,-1,7
372.913,7,0,0,8
372.914,7,0,0,7
372.914,8,2,1,6
372.915,8,2,2,6
372.916,7,4,2,5
372.916,6,4,2,3
372.917,4,4,3,1
372.917,3,5,4,1
372.918,2,5,4,0
372.918,2,6,3,-1
372.919,1,8,5,-2
372.92,0,8,5,-3
372.92,-1,7,3,-6
372.921,-3,5,2,-7
372.921,-5,4,2,-7
372.922,-4,5,4,-4
372.922,-3,5,4,-2
372.923,-1,4,4,0
372.924,0,4,3,0
372.924,1,3,4,1
372.925,1,2,3,1
372.925,1,3,3,3
372.926,4,3,3,5
372.926,5,2,2,5
372.927,5,2,1,4
372.928,5,1,1,4
372.928,5,1,0,5
372.929,6,1,0,5
372.929,6,1,0,5
372.93,6,1,1,6
372.93,5,0,1,7
372.931,6,1,1,6
372.932,5,0,0,5
372.932,4,-2,-2,5
372.933,6,-2,-3,5
372.933,7,-1,-2,5
372.934,6,-1,-1,6
372.935,9,5,5,8
372.935,9,7,6,7
372.936,7,6,4,4
372.936,4,4,2,1
372.937,1,6,5,2
372.937,1,4,4,1
372.938,0,5,3,-2
372.939,0,5,3,-4
372.939,0,8,5,-4
372.94,0,10,6,-4
372.94,-1,9,7,-4
372.941,-4,5,4,-6
372.941,-5,5,3,-5
372.942,-4,5,3,-5
372.943,-4,2,1,-3
372.943,-2,2,2,0
372.944,0,3,4,1
372.944,2,5,5,3
372.945,3,5,5,5
372.945,4,3,1,3
372.946,4,1,0,3
372.947,4,1,1,4
372.947,5,3,2,6
372.948,6,2,1,5
372.948,4,1,0,3
372.949,4,0,0,5
372.949,5,1,1,6
372.95,6,2,2,6
372.951,6,2,2,6
372.951,5,1,1,6
372.952,4,-2,0,5
372.952,3,-5,-3,5
372.953,5,-2,0,8
372.953,7,0,0,8
372.954,6,-1,0,7
372.955,7,2,2,6
372.955,6,2,1,4
372.956,6,4,2,3
372.956,5,3,-1,-1
372.957,3,4,0,0
372.957,4,6,3,0
372.958,4,10,5,-2
372.959,4,12,7,-1
372.959,3,13,8,-2
372.96,0,11,6,-3
372.96,-1,8,5,-5
372.961,-3,5,2,-6
372.962,-3,4,2,-7
372.962,-3,4,2,-5
372.963,-5,1,1,-3
372.963,-3,1,3,0
372.964,1,4,4,2
372.964,1,3,3,4
372.965,4,5,5,5
372.965,5,4,3,4
372.966,4,3,2,3
372.967,3,2,1,3
372.967,3,1,2,4
372.968,3,0,2,6
372.968,4,0,2,7
372.969,5,0,2,8
372.97,5,-1,0,5
372.97,4,-1,0,5
372.971,5,0,0,5
372.971,7,0,-2,3
372.972,3,-2,-3,5
372.972,5,-2,-2,6
372.973,7,0,1,9
372.974,8,1,3,11
372.974,9,4,5,11
372.975,9,5,6,9
372.975,7,4,6,7
372.976,4,4,8,6
372.976,1,0,2,0
372.977,-1,-2,-4,-5
372.978,-1,0,-5,-8
372.978,0,6,-1,-7
372.979,1,10,2,-4
372.979,3,14,9,-2
372.98,3,15,11,0
372.98,2,12,8,-2
372.981,0,8,4,-5
372.982,-3,4,1,-6
372.982,-3,4,1,-4
372.983,-3,3,3,0
372.983,0,5,5,2
372.984,3,5,4,1
372.984,1,1,1,0
372.985,1,1,0,2
372.986,2,2,2,5
372.986,6,5,6,7
372.987,6,4,5,5
372.987,4,0,0,3
372.988,2,-1,0,2
372.988,4,0,0,5
372.989,5,0,0,6
372.99,6,1,1,6
372.99,5,0,0,4
372.991,5,0,0,4
372.991,5,0,0,5
372.992,5,-2,-2,6
372.992,6,0,-1,8
372.993,9,0,0,7
372.994,8,0,0,9
372.994,10,4,4,10
372.995,9,4,4,7
372.995,5,2,3,3
372.996,3,4,4,1
372.996,0,4,5,1
372.997,0,3,5,0
372.998,0,4,1,-5
372.998,-1,5,1,-6
372.999,0,9,3,-6
372.999,0,10,4,-6
373,0,11,6,-4
373,0,9,5,-4
373.001,0,9,6,-2
373.002,0,9,6,-1
373.002,0,5,3,-2
373.003,-1,2,1,-1
373.003,0,2,2,0
373.004,0,2,1,1
373.005,2,2,1,2
373.005,2,2,2,3
373.006,3,1,2,4
373.006,4,2,2,4
373.007,5,2,1,5
373.007,5,3,2,5
373.008,5,3,2,5
373.009,5,1,3,6
373.009,5,1,2,6
373.01,4,0,0,5
373.01,4,0,0,4
373.011,4,0,0,3
373.011,2,-1,-1,4
373.012,3,-4,-2,6
373.013,5,-2,-1,7
373.013,8,0,1,9
373.014,7,0,1,8
373.014,8,2,2,7
373.015,7,3,2,5
373.015,6,5,3,3
373.016,4,4,3,1
373.017,2,5,3,0
373.017,2,3,2,-1
373.018,1,7,3,0
373.018,3,10,4,-3
373.019,2,11,7,-2
373.019,0,11,8,-2
373.02,0,10,7,-5
373.021,-3,5,4,-6
373.021,-4,5,3,-4
373.022,-2,5,3,-3
373.022,-3,2,2,-3
373.023,-2,1,1,-1
373.023,0,2,0,-1
373.024,0,1,0,0
373.025,2,4,3,4
373.025,5,4,4,5
373.026,5,4,3,4
373.026,5,3,3,5
373.027,5,2,2,5
373.027,5,1,1,5
373.028,5,1,2,7
373.029,6,1,2,7
373.029,5,0,1,5
373.03,5,-1,-3,2
373.03,4,0,-2,2
373.031,6,1,0,5
373.032,5,0,0,6
373.032,6,-1,0,8
373.033,7,0,0,8
373.033,8,1,1,7
373.034,6,0,0,6
373.034,7,1,2,7
373.035,7,3,4,7
373.036,7,6,5,5
373.036,5,4,3,2
373.037,2,4,2,0
373.037,1,4,2,-1
373.038,0,5,3,-3
373.038,0,7,3,-5
373.039,0,8,3,-5
373.04,0,8,3,-6
373.04,0,10,5,-4
373.041,0,11,5,-4
373.041,-1,8,5,-4
373.042,-2,6,5,-2
373.042,-2,3,4,-1
373.043,-2,1,2,0
373.044,0,3,3,1
373.044,0,1,3,2
373.045,2,3,4,3
373.045,2,2,1,3
373.046,2,0,0,3
373.046,3,1,0,4
373.047,5,2,1,4
373.048,5,1,0,4
373.048,6,2,0,5
373.049,6,1,0,5
373.049,7,2,0,5
373.05,7,2,1,5
373.05,7,2,1,5
373.051,6,1,1,6
373.052,4,-3,-2,5
373.052,4,-2,-2,5
373.053,5,-2,-2,7
373.053,7,0,1,8
373.054,8,1,1,8
373.054,8,2,2,7
373.055,7,3,2,4
373.056,6,5,5,4
373.056,5,6,4,2
373.057,3,5,2,0
373.057,2,7,4,0
373.058,1,7,5,-1
373.059,0,7,3,-5
373.059,-1,9,6,-4
373.06,-2,8,5,-4
373.06,-3,8,7,-3
373.061,-3,6,5,-5
373.061,-4,5,5,-3
373.062,-4,2,3,-3
373.063,-5,0,0,-3
373.063,-2,1,2,0
373.064,2,4,3,1
373.064,1,3,4,3
373.065,3,3,4,4
373.065,4,3,2,4
373.066,4,3,2,6
373.067,6,2,1,5
373.067,5,1,2,7
373.068,6,0,0,4
373.068,6,1,0,3
373.069,5,1,0,3
373.069,6,3,2,5
373.07,5,2,1,5
373.071,5,2,3,5
373.071,5,1,1,6
373.072,4,-2,0,6
373.072,3,-4,-4,4
373.073,4,-2,-2,4
373.073,4,-2,-1,7
373.074,9,2,0,7
373.075,11,5,3,7
373.075,10,7,5,5
373.076,7,7,7,6
373.076,6,7,6,4
373.077,3,5,4,0
373.077,1,5,2,-3
373.078,-1,5,2,-5
373.079,-2,6,3,-5
373.079,-1,7,4,-5
373.08,-1,9,5,-5
373.08,-3,7,4,-5
373.081,-3,5,3,-5
373.082,-3,4,2,-4
373.082,-3,3,2,-1
373.083,0,4,3,1
373.083,2,5,4,1
373.084,2,3,3,2
373.084,1,3,3,2
373.085,2,2,2,3
373.086,3,2,1,3
373.086,4,2,1,4
373.087,4,1,0,3
373.087,4,0,0,4
373.088,6,2,0,4
373.088,7,4,3,7
373.089,7,4,4,8
373.09,7,3,3,6
373.09,5,0,0,5
373.091,4,0,0,4
373.091,2,-2,0,7
373.092,2,-3,2,9
373.092,5,-4,-1,7
373.093,5,-4,-3,4
373.094,4,-3,-3,5
373.094,6,1,1,7
373.095,9,4,3,7
373.095,8,6,5,6
373.096,8,8,7,5
373.096,6,8,7,3
373.097,4,5,2,-2
373.098,1,5,0,-6
373.098,-1,6,0,-7
373.099,0,8,2,-6
373.099,0,8,4,-6
373.1,0,10,4,-6
373.1,-2,7,5,-4
373.101,0,9,7,-2
373.102,0,8,9,1
373.102,0,5,6,0
373.103,-2,0,2,0
373.103,-1,0,0,0
373.104,0,1,2,2
373.104,1,2,2,3
373.105,2,2,2,3
373.106,3,1,2,3
373.106,4,2,1,4
373.107,5,2,2,4
373.107,5,2,1,5
373.108,5,2,1,5
373.108,5,1,1,5
373.109,6,1,0,5
373.11,6,0,0,4
373.11,6,1,0,5
373.111,6,2,0,6
373.111,5,0,0,5
373.112,5,-1,0,7
373.112,6,-1,0,7
373.113,6,-1,0,7
373.114,7,0,0,7
373.114,8,2,3,7
373.115,7,4,4,6
373.115,6,5,4,4
373.116,4,4,3,1
373.117,1,3,2,0
373.117,1,4,2,-2
373.118,1,8,4,-2
373.118,1,8,4,-4
373.119,0,10,3,-5
373.119,-1,9,4,-6
373.12,-2,9,6,-3
373.121,-1,7,5,-3
373.121,-2,6,5,-3
373.122,-2,5,4,-2
373.122,-2,3,2,-2
373.123,-1,2,3,0
373.123,0,2,4,1
373.124,1,1,2,1
373.125,2,3,3,3
373.125,3,4,4,4
373.126,4,2,2,4
373.126,4,1,2,4
373.127,4,1,1,4
373.127,4,0,-1,3
373.128,5,0,0,4
373.129,6,1,0,5
373.129,7,2,0,5
373.13,8,3,2,6
373.13,8,4,2,6
373.131,6,1,0,5
373.131,4,-3,-3,5
373.132,4,-3,-2,5
373.133,6,0,0,7
373.133,6,0,0,8
373.134,8,1,2,8
373.134,8,3,3,7
373.135,6,3,3,4
373.135,5,5,4,3
373.136,4,4,2,1
373.137,2,5,2,0
373.137,2,6,2,-3
373.138,0,7,3,-3
373.138,0,10,7,-1
373.139,0,10,7,-2
373.139,-1,8,6,-3
373.14,-3,7,6,-4
373.141,-4,4,3,-6
373.141,-4,5,2,-6
373.142,-3,3,2,-3
373.142,-2,3,2,-1
373.143,0,2,0,-1
373.143,1,3,0,0
373.144,1,3,4,4
373.145,5,4,4,5
373.145,5,5,6,7
373.146,6,6,8,9
373.146,4,1,3,5
373.147,2,0,0,3
373.148,2,-1,0,2
373.148,3,0,0,4
373.149,4,0,0,6
373.149,7,1,0,5
373.15,6,1,0,4
373.15,4,1,2,6
373.151,5,0,0,6
373.152,5,-3,-3,6
373.152,7,-2,-3,5
373.153,7,-1,-2,5
373.153,6,-1,-1,5
373.154,8,2,0,6
373.154,9,5,1,4
373.155,8,7,4,4
373.156,7,8,5,3
373.156,6,7,4,1
373.157,2,5,4,0
373.157,2,8,6,0
373.158,1,8,6,-1
373.158,0,8,6,-2
373.159,-1,7,5,-4
373.16,-3,6,4,-5
373.16,-2,7,6,-4
373.161,-2,6,6,-2
373.161,-2,5,4,-3
373.162,-4,1,1,-3
373.163,-4,0,0,-2
373.163,-1,1,2,0
373.164,0,2,2,2
373.164,1,2,3,2
373.165,3,3,4,5
373.165,5,4,2,4
373.166,5,3,1,4
373.166,4,2,2,5
373.167,5,3,3,6
373.168,5,1,2,7
373.168,6,1,0,5
373.169,4,0,0,3
373.169,4,0,0,4
373.17,4,0,0,4
373.171,5,0,0,4
373.171,5,-1,0,5
373.172,6,-2,-1,7
373.172,6,-2,-1,7
373.173,8,0,0,7
373.173,7,0,0,8
373.174,9,3,3,8
373.175,8,4,5,7
373.175,8,7,7,7
373.176,5,6,6,3
373.176,2,4,3,0
373.177,0,3,1,-1
373.177,0,5,2,-4
373.178,0,5,1,-5
373.179,-1,6,1,-7
373.179,-2,7,1,-7
373.18,-1,9,4,-5
373.18,0,9,4,-4
373.181,0,9,4,-4
373.181,0,7,4,-3
373.182,0,5,4,0
373.183,1,5,4,0
373.183,1,4,3,0
373.184,1,2,3,3
373.184,2,3,4,3
373.185,2,2,4,5
373.185,4,3,5,6
373.186,3,1,2,4
373.187,2,-1,0,3
373.187,2,-2,-1,1
373.188,2,-1,-2,3
373.188,5,0,-1,3
373.189,6,2,0,6
373.189,8,3,2,6
373.19,8,3,2,7
373.191,7,2,2,7
373.191,6,0,0,6
373.192,5,-2,-1,7
373.192,5,-2,-1,6
373.193,6,0,0,7
373.193,6,0,1,8
373.194,8,2,2,7
373.195,7,3,2,4
373.195,5,4,2,2
373.196,2,4,2,1
373.196,3,4,2,0
373.197,3,6,3,-1
373.197,2,8,5,-1
373.198,1,9,6,-3
373.199,0,10,6,-3
373.199,-1,9,5,-5
373.2,-1,8,5,-5
373.2,-3,6,3,-6
373.201,-4,4,3,-4
373.201,-3,3,2,-3
373.202,-2,3,3,0
373.203,0,3,3,1
373.203,0,3,3,1
373.204,1,3,2,2
373.204,2,3,1,3
373.205,4,1,-1,0
373.206,4,3,0,1
373.206,5,3,2,3
373.207,6,4,5,7
373.207,7,3,5,9
373.208,6,2,4,8
373.208,5,0,2,6
373.209,3,0,2,5
373.21,3,-1,0,4
373.21,3,-1,0,4
373.211,4,-2,-2,4
373.211,3,-4,-3,4
373.212,5,-2,-2,6
373.212,6,0,0,7
373.213,8,0,0,7
373.214,10,3,2,9
373.214,10,4,2,6
373.215,7,4,3,4
373.215,6,5,3,2
373.216,4,5,3,1
373.216,4,6,4,0
373.217,3,8,5,-1
373.218,1,8,6,-1
373.218,0,9,7,-2
373.219,-1,8,7,-4
373.219,-2,6,4,-5
373.22,-4,5,3,-5
373.221,-4,4,2,-6
373.221,-5,3,2,-4
373.222,-3,2,1,-3
373.222,-1,2,0,-2
373.223,0,4,1,0
373.223,3,6,4,3
373.224,4,4,4,4
373.225,4,5,5,5
373.225,5,4,4,6
373.226,5,3,2,4
373.226,4,1,1,5
373.227,5,1,0,4
373.227,5,0,0,5
373.228,4,0,-1,4
373.229,5,0,0,3
373.229,5,1,1,4
373.23,5,1,0,3
373.23,4,2,2,5
373.231,4,1,3,7
373.231,3,-2,0,8
373.232,5,-2,0,8
373.233,7,0,0,6
373.233,5,-2,0,6
373.234,6,1,2,7
373.234,6,0,0,4
373.235,6,1,0,2
373.235,7,5,1,2
373.236,7,8,4,1
373.237,6,9,6,2
373.237,6,12,9,1
373.238,3,12,9,0
373.238,0,10,9,-3
373.239,-3,8,7,-4
373.24,-5,4,4,-6
373.24,-5,4,2,-8
373.241,-7,1,0,-8
373.241,-6,1,-1,-8
373.242,-5,1,-1,-5
373.242,-1,2,0,-2
373.243,2,6,4,1
373.244,4,7,6,5
373.244,6,7,6,6
373.245,6,6,5,6
373.245,6,5,3,4
373.246,4,1,0,2
373.246,4,1,0,2
373.247,4,1,0,3
373.247,4,1,0,3
373.248,5,1,0,4
373.249,6,2,1,5
373.249,8,5,7,10
373.25,7,2,6,9
373.25,5,0,3,7
373.251,2,-3,0,6
373.252,0,-7,-4,3
373.252,1,-6,-4,3
373.253,2,-3,-2,5
373.253,4,-1,0,6
373.254,7,2,1,6
373.254,8,3,1,4
373.255,8,6,3,3
373.256,7,7,3,2
373.256,5,7,3,1
373.257,5,10,8,3
373.257,4,11,10,1
373.258,2,8,5,-4
373.258,-1,6,1,-7
373.259,-3,6,1,-6
373.26,-1,7,2,-7
373.26,-3,6,3,-6
373.261,-2,6,4,-4
373.261,-1,6,4,-3
373.262,0,4,4,-1
373.262,0,3,4,1
373.263,1,3,4,1
373.264,1,2,3,1
373.264,1,2,3,4
373.265,3,2,2,3
373.265,3,1,0,3
373.266,4,1,0,3
373.266,5,2,1,5
373.267,5,2,1,5
373.268,5,1,1,6
373.268,6,1,1,6
373.269,6,2,2,7
373.269,5,1,1,5
373.27,5,0,0,5
373.271,4,0,-1,4
373.271,4,-3,-2,5
373.272,4,-3,-3,6
373.272,6,0,0,8
373.273,7,0,2,9
373.273,8,1,3,9
373.274,8,3,3,7
373.274,7,3,3,4
373.275,5,3,1,1
373.276,3,4,0,-1
373.276,2,4,-1,-3
373.277,2,5,0,-4
373.277,2,8,2,-2
373.278,3,12,7,-1
373.278,3,13,9,0
373.279,2,11,8,-1
373.28,0,10,9,-2
373.28,-2,7,8,-1
373.281,-4,3,3,-4
373.281,-6,1,1,-6
373.282,-5,0,0,-3
373.283,-4,0,0,-2
373.283,-2,1,1,-1
373.284,0,1,1,0
373.284,1,4,3,4
373.285,4,5,4,4
373.285,4,3,3,5
373.286,5,3,1,5
373.287,6,3,2,6
373.287,7,4,3,6
373.288,6,2,1,5
373.288,6,1,0,3
373.289,5,0,-1,3
373.289,5,0,0,3
373.29,6,2,0,5
373.291,6,2,0,5
373.291,5,-1,0,7
373.292,6,-2,-1,7
373.292,7,0,0,7
373.293,6,-1,0,8
373.293,8,1,4,9
373.294,7,4,7,10
373.295,5,2,4,5
373.295,2,2,1,1
373.296,1,2,1,0
373.296,1,3,2,0
373.297,2,5,2,-2
373.298,1,6,3,-3
373.298,1,9,5,-3
373.299,0,10,5,-5
373.299,-1,9,6,-3
373.3,-2,8,5,-4
373.3,-2,6,3,-4
373.301,-1,6,3,-5
373.301,-2,5,2,-3
373.302,-1,3,3,-1
373.303,0,2,1,0
373.303,1,2,0,-1
373.304,2,4,2,2
373.304,5,6,4,4
373.305,5,5,5,6
373.306,6,4,4,6
373.306,4,1,2,4
373.307,4,1,1,5
373.307,6,0,1,5
373.308,4,0,0,5
373.308,5,0,0,5
373.309,5,1,1,5
373.31,4,0,0,3
373.31,3,0,0,3
373.311,3,-1,0,3
373.311,2,-3,-3,4
373.312,4,-2,-1,8
373.312,8,1,1,8
373.313,7,0,0,6
373.314,7,2,2,7
373.314,8,4,3,7
373.315,9,7,6,7
373.315,7,6,4,3
373.316,4,5,2,1
373.316,2,5,2,-1
373.317,1,6,3,-2
373.318,0,7,5,-2
373.318,0,9,5,-4
373.319,-1,8,5,-4
373.319,-2,7,3,-6
373.32,-4,5,3,-6
373.32,-2,6,3,-4
373.321,-2,5,4,-3
373.322,-2,3,2,-2
373.322,-1,4,3,0
373.323,0,4,3,0
373.323,1,4,4,2
373.324,2,4,3,2
373.324,3,2,3,3
373.325,3,2,3,4
373.326,3,2,2,4
373.326,4,1,2,5
373.327,4,0,2,5
373.327,4,0,0,4
373.328,5,0,-2,3
373.328,6,0,-1,4
373.329,7,3,2,6
373.33,7,3,1,6
373.33,6,1,0,5
373.331,5,-1,-1,5
373.331,4,-2,-2,5
373.332,6,-1,-1,6
373.332,8,0,0,7
373.333,8,0,-1,6
373.334,9,3,2,7
373.334,9,5,5,7
373.335,7,6,7,6
373.335,5,5,5,4
373.336,3,4,3,0
373.336,0,3,2,-2
373.337,0,6,3,-3
373.338,-1,6,2,-6
373.338,-1,8,4,-5
373.339,0,8,4,-5
373.339,0,10,7,-3
373.34,-1,8,4,-6
373.341,-2,6,4,-3
373.341,-1,7,5,-2
373.342,-2,4,4,0
373.342,0,3,4,0
373.343,0,2,2,0
373.343,0,0,0,0
373.344,0,1,1,2
373.345,2,2,4,5
373.345,5,3,3,6
373.346,6,3,1,4
373.346,5,2,0,3
373.347,4,2,1,5
373.347,5,2,2,6
373.348,6,3,3,6
373.349,7,1,2,5
373.349,5,0,-1,4
373.35,4,0,0,4
373.35,4,1,1,6
373.351,3,-2,0,7
373.351,4,-3,-1,6
373.352,6,-2,-1,7
373.353,6,-1,-1,7
373.353,7,0,0,8
373.354,9,2,2,7
373.354,8,3,2,5
373.355,6,4,2,3
373.355,5,5,2,0
373.356,4,6,3,0
373.357,4,8,4,-1
373.357,2,9,7,-1
373.358,1,10,8,-2
373.358,0,8,7,-3
373.359,-2,6,5,-4
373.359,-3,6,3,-7
373.36,-4,3,0,-8
373.361,-4,3,0,-6
373.361,-3,4,1,-4
373.362,-1,4,1,-1
373.362,1,4,2,0
373.363,4,7,5,3
373.363,5,7,7,4
373.364,3,4,7,6
373.365,3,1,3,4
373.365,1,0,1,3
373.366,2,1,2,5
373.366,3,1,2,4
373.367,3,0,1,4
373.367,3,0,0,4
373.368,4,-1,0,4
373.369,5,0,0,4
373.369,5,0,0,4
373.37,6,1,-1,4
373.37,6,0,-2,3
373.371,5,-1,-1,7
373.372,8,0,0,8
373.372,9,2,1,9
373.373,8,0,1,8
373.373,7,1,2,7
373.374,7,3,2,7
373.374,7,4,2,4
373.375,5,4,2,2
373.375,3,4,3,0
373.376,2,4,3,0
373.377,1,6,4,-1
373.377,1,7,4,-2
373.378,0,8,5,-4
373.378,-1,8,4,-5
373.379,-1,8,5,-5
373.38,-2,8,5,-5
373.38,-3,5,3,-6
373.381,-3,5,4,-4
373.381,-2,3,2,-2
373.382,-1,3,2,0
373.382,0,4,4,1
373.383,1,4,4,2
373.384,2,3,3,3
373.384,3,3,2,4
373.385,4,2,1,3
373.385,4,1,1,3
373.386,3,1,0,4
373.387,5,2,1,5
373.387,5,2,2,6
373.388,6,2,0,5
373.388,5,1,1,5
373.389,5,1,1,5
373.389,5,0,0,5
373.39,5,0,0,4
373.391,4,-2,-1,5
373.391,3,-4,-4,3
373.392,5,-2,-2,7
373.392,7,0,0,7
373.393,8,0,0,8
373.393,10,4,3,8
373.394,9,5,4,6
373.395,7,5,3,4
373.395,5,4,3,2
373.396,3,4,3,3
373.396,4,5,2,1
373.397,3,8,5,0
373.397,1,8,7,-1
373.398,0,7,6,-4
373.398,-3,5,4,-6
373.399,-4,6,3,-7
373.4,-5,5,4,-7
373.4,-5,4,2,-6
373.401,-4,5,4,-2
373.401,-2,3,2,-2
373.402,-1,1,-1,-2
373.402,1,3,-1,-2
373.403,3,4,-1,-1
373.404,5,6,2,3
373.404,7,7,4,6
373.405,9,8,7,8
373.405,9,8,6,6
373.406,6,3,3,4
373.407,4,3,3,6
373.407,5,3,6,8
373.408,4,3,8,9
373.408,2,-2,0,3
373.409,0,-5,-3,0
373.409,0,-5,-6,-1
373.41,0,-4,-4,0
373.411,2,-3,-1,5
373.411,5,-2,-1,8
373.412,9,1,2,11
373.412,10,2,4,9
373.413,7,0,0,8
373.413,8,2,1,5
373.414,7,3,1,4
373.415,7,6,3,3
373.415,7,7,4,2
373.416,5,7,4,1
373.416,4,6,4,0
373.417,2,8,5,-2
373.417,0,9,8,-1
373.418,0,9,8,-1
373.419,-2,6,3,-5
373.419,-4,4,2,-7
373.42,-5,3,1,-7
373.42,-3,4,1,-6
373.421,-2,4,1,-5
373.422,-2,3,1,-2
373.422,1,5,4,1
373.423,2,6,5,2
373.423,2,3,3,3
373.424,2,3,4,4
373.424,3,3,3,4
373.425,4,3,3,4
373.426,4,2,1,5
373.426,4,2,2,5
373.427,5,1,0,4
373.427,4,0,1,6
373.428,5,1,1,6
373.428,5,0,0,4
373.429,5,0,0,4
373.43,5,0,0,4
373.43,5,1,0,4
373.431,3,-2,-2,4
373.431,4,-2,-2,6
373.432,6,0,0,7
373.432,8,0,0,8
373.433,8,1,1,8
373.434,9,4,3,8
373.434,9,6,3,5
373.435,6,5,4,4
373.435,5,6,4,2
373.436,2,4,2,0
373.436,0,5,2,-1
373.437,1,6,3,-3
373.438,0,9,6,-3
373.438,0,9,5,-4
373.439,-2,7,2,-6
373.439,-1,7,2,-8
373.44,-3,7,3,-5
373.44,-2,7,7,-1
373.441,-1,5,6,0
373.442,0,3,4,0
373.442,0,2,4,1
373.443,0,1,3,1
373.443,0,1,4,3
373.444,1,0,3,3
373.445,1,-1,-2,0
373.445,2,0,-2,0
373.446,4,2,0,3
373.446,5,3,2,5
373.447,6,3,3,7
373.447,7,3,3,8
373.448,8,4,5,8
373.449,8,2,2,6
373.449,5,0,-1,2
373.45,3,-1,-1,3
373.45,4,-1,0,4
373.451,5,-1,0,7
373.451,6,-1,0,7
373.452,6,0,0,8
373.453,7,0,0,6
373.453,7,0,1,6
373.454,7,2,1,5
373.454,6,4,4,4
373.455,5,6,4,3
373.455,3,5,4,1
373.456,3,6,4,0
373.457,2,6,4,0
373.457,0,7,4,-3
373.458,-1,8,3,-5
373.458,-2,7,5,-4
373.459,-1,8,5,-4
373.459,-1,6,4,-5
373.46,-2,6,3,-5
373.461,-2,5,2,-4
373.461,-2,3,1,-3
373.462,0,4,3,0
373.462,2,4,4,2
373.463,3,5,5,4
373.463,3,3,4,4
373.464,2,2,4,4
373.465,3,1,2,3
373.465,3,1,1,3
373.466,3,0,1,3
373.466,3,0,0,2
373.467,5,0,-2,2
373.467,6,2,-1,3
373.468,8,3,0,5
373.469,8,4,1,5
373.469,8,3,2,6
373.47,7,3,4,8
373.47,6,1,3,9
373.471,5,-3,0,7
373.471,4,-4,-2,6
373.472,3,-4,-4,4
373.473,4,-4,-5,3
373.473,7,2,1,6
373.474,8,6,6,8
373.474,8,7,7,7
373.475,6,5,4,3
373.475,3,5,3,0
373.476,2,5,3,0
373.477,1,7,5,-1
373.477,0,7,6,-2
373.478,0,8,7,-2
373.478,-1,8,5,-4
373.479,-2,6,3,-6
373.479,-4,4,3,-6
373.48,-4,3,1,-6
373.481,-3,4,2,-3
373.481,-2,3,1,-1
373.482,1,3,1,-1
373.482,2,4,3,0
373.483,2,5,4,2
373.484,3,4,4,4
373.484,5,5,6,7
373.485,6,4,3,4
373.485,4,1,0,3
373.486,3,0,0,3
373.486,4,0,0,4
373.487,5,2,1,5
373.488,6,1,0,4
373.488,5,0,0,4
373.489,6,1,0,5
373.489,7,1,2,7
373.49,7,2,2,6
373.491,5,-1,0,7
373.491,3,-3,-1,5
373.492,3,-4,-2,4
373.492,3,-2,0,6
373.493,6,0,1,7
373.493,7,3,3,6
373.494,8,5,3,5
373.494,6,7,6,4
373.495,4,5,5,1
373.496,1,4,3,0
373.496,2,4,1,-1
373.497,2,7,3,-2
373.497,1,8,4,-4
373.498,0,9,4,-4
373.499,0,8,4,-5
373.499,-1,9,4,-5
373.5,-1,7,3,-5
373.5,-2,6,3,-4
373.501,-2,6,4,-1
373.501,0,4,3,0
373.502,0,2,2,-1
373.503,0,3,2,1
373.503,2,3,2,1
373.504,2,2,2,3
373.504,3,3,3,5
373.505,5,4,5,6
373.505,5,3,5,6
373.506,4,2,4,5
373.507,3,0,1,4
373.507,3,0,0,3
373.508,3,-2,-3,1
373.508,3,-1,-4,0
373.509,5,0,-1,3
373.509,6,2,1,6
373.51,8,2,1,6
373.511,6,0,-1,6
373.511,7,0,0,8
373.512,9,2,3,10
373.512,8,0,0,8
373.513,8,0,0,6
373.513,7,3,1,5
373.514,6,4,4,5
373.514,5,5,4,2
373.515,3,6,5,2
373.516,1,5,5,1
373.516,0,4,2,-2
373.517,0,5,3,-3
373.517,0,8,4,-4
373.518,-2,7,5,-4
373.519,-1,7,5,-4
373.519,-1,9,6,-3
373.52,-2,6,5,-4
373.52,-2,6,4,-3
373.521,-3,3,3,-3
373.521,-3,1,2,-1
373.522,-1,1,0,0
373.523,2,3,0,-1
373.523,3,4,-1,-1
373.524,2,2,-1,0
373.524,5,4,1,4
373.525,8,8,7,8
373.526,9,8,8,9
373.526,7,5,5,7
373.527,5,2,5,7
373.527,4,1,5,8
373.528,2,-1,1,6
373.528,2,-3,0,4
373.529,1,-4,-5,0
373.529,1,-2,-4,0
373.53,3,0,0,5
373.531,4,-1,0,7
373.531,7,0,0,8
373.532,8,1,1,9
373.532,8,0,0,7
373.533,8,0,0,6
373.533,6,2,1,5
373.534,7,5,3,4
373.535,6,7,5,4
373.535,5,7,5,2
373.536,3,5,4,0
373.536,1,6,3,-1
373.537,0,6,5,-1
373.537,0,8,5,-3
373.538,-1,7,3,-7
373.539,-3,4,0,-9
373.539,-3,4,0,-7
373.54,-3,6,1,-5
373.54,0,9,4,-2
373.541,1,9,7,0
373.541,1,6,7,2
373.542,3,4,2,0
373.543,0,2,1,0
373.543,1,4,5,4
373.544,5,5,6,5
373.544,4,4,5,5
373.545,4,3,2,4
373.546,2,0,1,3
373.546,1,0,0,2
373.547,1,-1,0,3
373.547,3,-1,0,4
373.548,3,0,0,5
373.548,5,1,1,5
373.549,5,1,0,5
373.549,4,1,0,5
373.55,4,0,1,8
373.551,6,0,2,10
373.551,7,0,2,10
373.552,8,0,2,8
373.552,5,-2,0,6
373.553,5,0,-1,4
373.554,5,0,-2,2
373.554,5,2,-1,0
373.555,4,3,-1,-1
373.555,5,7,1,0
373.556,6,10,5,2
373.556,7,14,10,2
373.557,5,12,8,0
373.558,2,9,6,-3
373.558,-1,7,3,-5
373.559,-2,6,2,-7
373.559,-3,5,0,-9
373.56,-4,4,1,-6
373.56,-2,6,4,-2
373.561,-1,5,3,0
373.562,0,4,3,1
373.562,1,3,4,2
373.563,1,3,3,2
373.563,2,3,4,3
373.564,2,2,4,4
373.565,3,2,2,3
373.565,3,1,2,4
373.566,3,1,3,5
373.566,4,1,1,4
373.567,4,0,0,4
373.567,4,0,0,4
373.568,5,0,0,5
373.569,7,2,1,5
373.569,6,1,0,5
373.57,5,0,0,4
373.57,4,-2,-1,6
373.571,6,-1,-1,6
373.571,6,-1,0,6
373.572,7,0,0,8
373.573,8,1,2,8
373.573,9,3,3,7
373.574,7,3,3,5
373.574,7,6,6,5
373.575,4,4,4,2
373.575,2,3,1,0
373.576,1,4,2,-1
373.577,0,5,4,-1
373.577,0,6,4,-2
373.578,-1,8,6,-4
373.578,-2,7,6,-3
373.579,-2,8,5,-4
373.579,-3,6,3,-6
373.58,-5,4,2,-6
373.581,-4,4,2,-4
373.581,-1,4,3,-1
373.582,0,4,2,0
373.582,1,5,3,0
373.583,1,4,3,2
373.583,2,3,1,3
373.584,4,2,0,2
373.585,7,3,-1,2
373.585,7,4,1,4
373.586,8,6,3,6
373.586,8,4,4,7
373.587,6,3,5,8
373.587,6,3,4,7
373.588,5,1,2,6
373.589,2,-3,-2,2
373.589,2,-3,-3,1
373.59,2,-2,-3,2
373.59,3,-3,-4,3
373.591,4,-3,-2,5
373.591,7,0,0,8
373.592,8,0,1,9
373.593,9,2,3,10
373.593,9,5,7,10
373.594,9,5,7,8
373.594,4,2,3,3
373.595,2,2,0,0
373.595,0,2,0,-2
373.596,0,5,1,-4
373.597,0,7,4,-3
373.597,0,9,5,-3
373.598,0,10,6,-3
373.598,0,10,6,-4
373.599,-1,9,6,-4
373.6,-3,6,4,-5
373.6,-3,5,2,-4
373.601,-3,4,3,-2
373.601,-1,4,3,0
373.602,1,4,4,0
373.602,1,3,2,1
373.603,1,1,2,1
373.604,2,2,3,4
373.604,4,3,3,5
373.605,5,3,3,4
373.605,3,1,1,4
373.606,4,1,2,5
373.606,4,0,0,4
373.607,4,0,0,4
373.608,5,0,0,4
373.608,6,1,0,4
373.609,5,1,1,6
373.609,6,1,1,5
373.61,5,0,0,5
373.61,4,-3,-3,5
373.611,6,-2,-2,7
373.612,8,0,0,7
373.612,7,0,0,7
373.613,9,3,2,8
373.613,9,5,3,7
373.614,7,5,4,5
373.614,5,6,5,4
373.615,3,5,5,2
373.616,1,4,3,-1
373.616,0,4,2,-2
373.617,-1,5,1,-4
373.617,-1,7,2,-5
373.618,-1,9,4,-5
373.618,0,9,4,-5
373.619,-1,7,3,-6
373.62,-2,7,2,-4
373.62,-1,6,4,-2
373.621,0,5,4,0
373.621,0,4,4,1
373.622,1,3,3,1
373.623,1,4,4,3
373.623,2,4,5,4
373.624,3,3,6,6
373.624,3,1,3,4
373.625,1,0,1,3
373.625,2,0,1,4
373.626,3,0,0,3
373.626,3,0,-1,2
373.627,5,0,-2,2
373.628,5,0,-2,2
373.628,6,2,0,4
373.629,8,3,0,5
373.629,8,3,0,5
373.63,6,0,-1,6
373.631,7,0,0,7
373.631,7,0,0,8
373.632,8,1,2,8
373.632,7,1,1,7
373.633,8,3,4,7
373.633,7,5,5,7
373.634,5,5,5,3
373.635,2,2,3,1
373.635,0,0,0,-1
373.636,0,1,0,-3
373.636,0,5,2,-3
373.637,0,7,4,-3
373.637,0,9,5,-4
373.638,0,9,5,-4
373.639,0,9,5,-4
373.639,0,8,3,-4
373.64,-1,7,7,-1
373.64,-1,7,8,1
373.641,-2,2,3,0
373.641,-2,0,1,-1
373.642,0,3,3,0
373.643,0,1,1,0
373.643,0,1,1,2
373.644,2,1,1,3
373.644,3,3,2,5
373.645,6,3,3,5
373.645,6,2,0,4
373.646,6,2,0,4
373.647,6,2,0,4
373.647,6,2,0,4
373.648,7,2,0,5
373.648,6,2,1,5
373.649,7,3,3,8
373.65,7,2,3,7
373.65,4,-2,-2,4
373.651,3,-4,-3,3
373.651,4,-2,-2,5
373.652,4,-1,0,7
373.652,5,0,1,8
373.653,8,4,6,9
373.654,8,5,6,8
373.654,7,6,6,5
373.655,3,3,2,0
373.655,0,1,0,-2
373.656,0,3,2,-1
373.656,0,5,3,-2
373.657,0,8,3,-5
373.658,0,8,4,-5
373.658,-1,9,6,-4
373.659,0,10,8,-1
373.659,0,9,8,0
373.66,-1,6,6,-1
373.66,-2,3,2,-3
373.661,-2,0,0,-3
373.662,-1,1,0,-2
373.662,0,2,1,0
373.663,0,2,0,0
373.663,2,3,1,2
373.664,4,5,4,4
373.664,6,5,4,5
373.665,6,4,1,4
373.666,6,3,0,4
373.666,6,2,1,5
373.667,7,4,4,8
373.667,7,3,5,8
373.668,5,3,6,9
373.668,3,0,4,8
373.669,3,-2,0,3
373.67,1,-3,-2,3
373.67,1,-5,-5,2
373.671,2,-7,-6,2
373.671,5,-2,-4,4
373.672,7,-1,-3,5
373.672,10,3,0,7
373.673,12,8,4,7
373.674,12,10,6,7
373.674,10,10,9,7
373.675,7,9,7,3
373.675,4,6,3,0
373.676,0,4,1,-4
373.676,-2,4,1,-5
373.677,-1,7,4,-4
373.678,-1,8,5,-4
373.678,-1,8,5,-5
373.679,-2,5,1,-7
373.679,-5,4,2,-5
373.68,-4,5,4,-3
373.681,-2,5,5,0
373.681,0,4,5,1
373.682,1,5,6,2
373.682,0,3,3,0
373.683,0,0,1,1
373.683,2,2,2,2
373.684,4,3,2,4
373.685,4,2,2,4
373.685,4,0,0,4
373.686,4,1,1,5
373.686,7,2,0,5
373.687,6,3,2,5
373.687,6,2,2,6
373.688,5,1,1,5
373.689,5,0,1,6
373.689,4,0,1,6
373.69,4,-1,0,5
373.69,4,-3,-2,5
373.691,5,-3,-2,6
373.691,7,0,-1,7
373.692,6,-1,0,6
373.693,8,1,1,6
373.693,8,3,1,5
373.694,7,5,4,5
373.694,7,7,5,3
373.695,5,6,4,1
373.695,1,5,3,0
373.696,1,6,4,-1
373.697,0,7,4,-3
373.697,-1,8,4,-4
373.698,-1,8,4,-5
373.698,-2,8,6,-4
373.699,-2,6,5,-3
373.699,-2,6,4,-3
373.7,-2,5,4,-3
373.701,-3,2,2,-2
373.701,-1,3,2,0
373.702,0,1,1,0
373.702,1,2,2,1
373.703,2,3,1,1
373.703,3,3,2,2
373.704,5,4,3,4
373.705,5,3,4,7
373.705,6,4,3,6
373.706,6,4,3,5
373.706,4,0,0,4
373.707,5,1,0,4
373.707,5,0,0,4
373.708,4,0,0,4
373.709,5,0,0,5
373.709,4,0,-1,5
373.71,4,0,-1,6
373.71,4,-2,-1,6
373.711,6,-1,0,8
373.711,8,0,1,8
373.712,7,0,0,7
373.713,8,3,1,6
373.713,7,3,1,5
373.714,6,4,3,2
373.714,5,4,2,1
373.715,4,5,1,0
373.715,2,5,3,0
373.716,3,9,5,0
373.717,2,10,7,-2
373.717,0,10,7,-4
373.718,-1,8,6,-4
373.718,-2,7,5,-5
373.719,-4,5,2,-7
373.72,-5,4,3,-6
373.72,-3,3,3,-4
373.721,-2,3,2,-1
373.721,0,3,2,0
373.722,2,4,3,1
373.722,2,3,3,2
373.723,4,3,2,4
373.724,5,4,3,4
373.724,5,3,2,3
373.725,4,2,1,3
373.725,4,2,2,4
373.726,5,3,4,6
373.726,6,3,5,8
373.727,5,1,3,6
373.728,4,0,0,4
373.728,3,0,0,4
373.729,4,0,0,3
373.729,3,0,0,4
373.73,3,-3,-2,5
373.73,5,-2,-2,7
373.731,6,0,0,7
373.732,7,0,0,8
373.732,8,2,1,8
373.733,10,5,3,7
373.733,8,5,3,5
373.734,6,4,1,1
373.735,3,5,1,0
373.735,1,4,0,-1
373.736,2,5,2,0
373.736,2,8,5,-1
373.737,2,10,5,-2
373.737,1,9,6,-3
373.738,0,8,5,-4
373.739,-2,6,3,-5
373.739,-2,6,3,-4
373.74,-2,6,3,-3
373.74,-2,4,4,-2
373.741,-2,2,2,0
373.741,0,3,3,1
373.742,0,4,5,2
373.743,0,2,3,2
373.743,2,2,3,3
373.744,2,2,3,4
373.744,3,2,3,5
373.745,4,2,1,3
373.745,3,1,0,4
373.746,5,1,0,4
373.747,5,1,0,4
373.747,6,1,0,5
373.748,5,0,0,4
373.748,5,0,1,6
373.749,6,2,1,5
373.749,6,1,1,6
373.75,5,-1,-1,7
373.751,7,-1,0,9
373.751,8,0,0,7
373.752,6,-2,-1,6
373.752,6,0,0,6
373.753,6,1,0,4
373.754,5,3,2,3
373.754,5,5,3,2
373.755,3,7,4,0
373.755,2,6,3,0
373.756,3,8,5,-1
373.756,0,8,5,-3
373.757,0,9,6,-3
373.757,0,8,5,-3
373.758,-1,8,5,-3
373.759,-2,7,4,-5
373.759,-2,6,4,-3
373.76,-2,6,4,-2
373.76,-2,2,2,-2
373.761,-1,2,1,-1
373.761,0,3,3,0
373.762,0,3,2,2
373.763,1,3,2,3
373.763,4,3,3,4
373.764,4,2,2,4
373.764,4,2,2,5
373.765,5,2,1,4
373.766,5,1,2,5
373.766,5,1,1,5
373.767,6,1,1,5
373.767,6,1,0,4
373.768,5,1,0,4
373.768,5,0,0,4
373.769,5,0,0,4
373.77,3,0,0,6
373.77,5,-1,0,7
373.771,7,0,0,8
373.771,7,1,2,9
373.772,6,0,0,7
373.772,7,0,1,5
373.773,6,1,0,3
373.773,5,2,0,1
373.774,4,4,2,1
373.775,4,6,4,2
373.775,4,7,5,1
373.776,4,9,4,-1
373.776,1,7,3,-4
373.777,0,9,5,-4
373.778,-1,7,5,-4
373.778,-1,7,5,-4
373.779,-2,7,4,-4
373.779,-2,4,3,-4
373.78,-2,5,3,-3
373.78,-2,3,3,0
373.781,0,2,2,0
373.782,0,3,3,0
373.782,1,2,2,1
373.783,2,2,2,1
373.783,3,3,3,3
373.784,4,2,3,4
373.784,4,2,3,5
373.785,5,2,1,4
373.786,4,0,0,3
373.786,4,1,0,5
373.787,6,2,1,5
373.787,6,2,1,6
373.788,7,2,0,5
373.788,6,2,0,5
373.789,5,0,-1,2
373.79,3,-2,-2,4
373.79,4,-1,0,7
373.791,6,0,1,8
373.791,6,0,1,7
373.792,7,0,0,7
373.793,7,1,1,5
373.793,6,3,2,5
373.794,5,5,5,5
373.794,4,5,4,3
373.795,3,5,4,1
373.795,2,5,3,0
373.796,1,6,2,-4
373.796,0,7,4,-4
373.797,-1,7,4,-4
373.798,-1,7,4,-4
373.798,0,8,4,-4
373.799,-1,7,4,-4
373.799,-1,5,4,-3
373.8,0,5,4,-1
373.801,0,4,3,0
373.801,0,1,0,0
373.802,0,0,-3,-2
373.802,0,0,0,1
373.803,2,3,3,3
373.803,5,5,5,6
373.804,7,7,8,9
373.805,8,4,1,3
373.805,3,1,-2,-1
373.806,2,0,-2,0
373.806,4,1,0,4
373.807,8,4,2,7
373.807,10,5,3,7
373.808,10,7,9,13
373.809,11,6,9,11
373.809,4,-4,-6,-1
373.81,-4,-13,-15,-6
373.81,-3,-9,-9,0
373.811,3,0,4,11
373.811,7,1,6,12
373.812,7,2,6,11
373.813,7,3,7,10
373.813,7,2,4,5
373.814,4,4,3,0
373.814,0,1,0,-4
373.815,-2,4,4,-1
373.815,1,11,13,8
373.816,6,11,9,0
373.817,0,4,0,-10
373.817,-6,4,-1,-12
373.818,-4,9,6,-3
373.818,3,12,6,-3
373.819,3,10,4,-4
373.819,1,12,7,-2
373.82,2,11,9,0
373.821,0,4,3,-2
373.821,-2,-1,-1,0
373.822,0,0,0,4
373.822,4,0,0,5
373.823,3,0,-2,1
373.823,3,0,-1,2
373.824,4,0,-1,1
373.825,3,0,0,4
373.825,5,1,1,5
373.826,6,3,6,11
373.826,9,6,9,11
373.827,6,5,12,14
373.828,5,0,0,-1
373.828,-6,-6,-2,0
373.829,-1,-4,-1,4
373.829,2,-6,-5,3
373.83,3,-4,-3,6
373.83,9,1,0,7
373.831,11,7,6,11
373.832,12,8,6,11
373.832,13,8,4,4
373.833,6,3,0,0
373.833,2,0,-2,0
373.834,3,1,-2,0
373.835,2,1,-1,0
373.835,3,3,1,0
373.836,4,10,8,1
373.836,4,10,4,-4
373.837,-2,6,1,-11
373.837,-6,6,3,-8
373.838,-3,10,9,-2
373.839,0,13,11,0
373.839,0,12,12,1
373.84,2,13,12,3
373.84,1,6,4,0
373.841,0,3,3,1
373.841,0,1,6,7
373.842,3,0,3,7
373.842,2,-6,-5,1
373.843,-1,-9,-6,3
373.844,1,-6,-4,5
373.844,5,-3,-5,1
373.845,3,-4,-8,-2
373.845,2,-2,-8,-4
373.846,1,0,-6,-4
373.846,2,4,0,1
373.847,6,8,6,5
373.848,8,11,12,11
373.848,13,15,15,13
373.849,12,13,13,9
373.849,6,3,3,4
373.85,0,-3,2,9
373.85,5,0,7,19
373.851,12,3,11,23
373.852,14,-3,-1,10
373.852,6,-6,-4,5
373.853,2,-10,-12,-1
373.853,1,-10,-17,-9
373.854,0,-6,-15,-11
373.854,2,4,-8,-11
373.855,0,8,-1,-10
373.856,0,14,6,-9
373.856,-2,17,16,-1
373.857,0,21,25,6
373.857,2,18,19,0
373.858,-1,14,12,-1
373.859,0,11,7,-4
373.859,-1,10,8,-1
373.86,0,7,3,-2
373.86,-2,1,0,-2
373.861,0,1,2,1
373.861,1,3,4,2
373.862,0,-1,-1,-2
373.863,-3,-3,-3,-1
373.863,0,0,1,5
373.864,9,10,7,6
373.864,9,8,4,4
373.865,4,0,-1,2
373.865,3,-1,0,5
373.866,6,1,5,10
373.867,6,0,1,6
373.867,0,-8,-5,3
373.868,2,-6,-4,5
373.868,4,-3,-3,3
373.869,3,-3,-1,7
373.869,3,-5,0,10
373.87,6,-4,0,11
373.871,8,0,3,15
373.871,12,3,6,15
373.872,14,6,5,10
373.872,11,4,1,2
373.873,5,3,0,0
373.873,3,6,3,0
373.874,3,8,3,-2
373.875,3,11,6,-2
373.875,1,13,9,-2
373.876,2,15,11,-3
373.876,-1,13,8,-7
373.877,-6,4,0,-15
373.877,-12,0,-5,-18
373.878,-12,0,-4,-16
373.879,-9,4,2,-4
373.879,1,11,9,2
373.88,6,11,10,6
373.88,7,9,8,6
373.881,7,7,10,12
373.881,10,5,8,12
373.882,6,0,0,1
373.883,-3,-9,-7,-6
373.883,-8,-10,-8,-4
373.884,-3,-7,-6,2
373.884,4,-2,-4,3
373.885,6,-1,-5,2
373.885,3,-4,-1,10
373.886,10,0,3,20
373.887,21,7,5,15
373.887,19,15,10,8
373.888,9,11,7,-2
373.888,-2,4,3,0
373.889,1,4,2,1
373.889,4,3,2,5
373.89,9,7,9,16
373.891,14,5,6,12
373.891,6,-3,-2,5
373.892,1,-10,-12,-6
373.892,-6,-10,-9,-6
373.893,-7,-8,-3,1
373.894,2,3,5,7
373.894,9,13,13,8
373.895,7,10,7,1
373.895,0,0,-1,-6
373.896,-4,0,0,-5
373.896,0,6,5,0
373.897,4,11,8,3
373.898,6,12,8,1
373.898,4,11,7,0
373.899,1,6,4,0
373.899,0,5,2,0
373.9,2,5,1,0
373.9,6,8,5,4
373.901,9,11,6,4
373.902,7,8,1,-2
373.902,0,5,2,-2
373.903,2,10,10,4
373.903,4,9,4,-6
373.904,-5,-1,-6,-13
373.905,-9,-4,-5,-5
373.905,-2,0,1,3
373.906,4,7,15,17
373.906,10,4,8,10
373.907,0,-11,-6,5
373.907,-1,-16,-14,-2
373.908,-5,-14,-11,-2
373.909,-1,-7,-7,1
373.909,4,-1,-4,2
373.91,6,1,1,8
373.91,9,0,0,10
373.911,6,-4,-4,2
373.911,-1,-10,-7,-1
373.912,0,3,11,15
373.913,18,23,29,29
373.913,27,26,23,20
373.914,20,16,11,11
373.914,14,12,5,5
373.915,8,7,4,7
373.915,8,6,3,5
373.916,6,5,5,6
373.917,4,3,0,-8
373.917,-7,0,-9,-31
373.918,-29,-9,-12,-33
373.918,-31,-10,-4,-17
373.919,-16,0,5,-2
373.919,-3,5,7,2
373.92,5,15,13,9
373.921,14,20,13,5
373.921,8,10,0,-6
373.922,1,0,-6,0
373.922,8,4,0,10
373.923,17,5,2,17
373.923,18,-1,-5,12
373.924,14,-6,-11,4
373.925,7,-6,-7,0
373.925,-3,-12,-8,0
373.926,0,-5,-3,0
373.926,0,0,-1,-1
373.927,0,9,10,4
373.927,8,24,25,12
373.928,11,27,29,15
373.929,9,14,12,3
373.929,-2,0,4,4
373.93,1,0,5,11
373.93,5,-7,-7,0
373.931,-5,-20,-18,-6
373.931,-9,-18,-9,5
373.932,6,0,1,11
373.933,12,3,1,5
373.933,8,6,3,4
373.934,6,8,6,4
373.934,7,11,8,3
373.935,7,13,10,4
373.935,8,14,9,0
373.936,0,0,-5,-12
373.937,-9,-7,-13,-15
373.937,-7,-3,-7,-8
373.938,0,4,0,-1
373.938,5,7,0,0
373.939,6,8,0,-3
373.939,3,9,2,-3
373.94,2,9,9,1
373.941,0,7,15,13
373.941,5,5,11,13
373.942,8,8,11,9
373.942,7,13,15,6
373.943,3,11,10,0
373.944,-5,2,3,-4
373.944,-4,1,0,-4
373.945,-2,2,0,-6
373.945,-6,-4,-5,-5
373.946,-5,-6,-6,-2
373.946,0,-3,-5,-2
373.947,0,-2,-4,0
373.948,1,3,3,7
373.948,10,12,16,19
373.949,14,8,11,16
373.949,9,-5,-6,3
373.95,1,-10,-8,5
373.95,5,-5,-2,10
373.951,10,-1,0,9
373.952,9,-2,-3,7
373.952,8,1,1,8
373.953,10,5,4,8
373.953,12,10,9,12
373.954,14,13,12,11
373.954,10,7,2,0
373.955,3,1,-3,-5
373.956,0,4,0,-3
373.956,0,3,1,-3
373.957,-2,2,1,-4
373.957,-3,2,-1,-12
373.958,-8,3,0,-12
373.958,-8,9,10,-1
373.959,1,12,9,-1
373.96,1,8,4,-2
373.96,0,2,3,3
373.961,3,2,0,1
373.961,2,0,-1,0
373.962,0,-1,-3,-2
373.962,0,4,2,-1
373.963,5,18,20,13
373.964,13,21,17,6
373.964,3,3,-2,-10
373.965,-7,-1,1,2
373.965,3,2,4,7
373.966,7,4,6,12
373.966,9,0,0,6
373.967,2,-8,-4,4
373.968,0,-9,-5,5
373.968,3,-5,-4,2
373.969,2,-2,-1,3
373.969,3,0,0,6
373.97,7,1,1,7
373.97,9,1,-1,4
373.971,6,-1,-3,1
373.972,5,2,-2,0
373.972,4,7,2,2
373.973,9,15,13,9
373.973,14,19,16,13
373.974,11,12,13,9
373.974,2,-2,-1,-2
373.975,-5,-6,-4,0
373.976,1,0,0,0
373.976,1,5,3,0
373.977,1,6,3,-2
373.977,0,6,3,-3
373.978,0,4,0,-6
373.979,-2,4,0,-10
373.979,-6,2,0,-12
373.98,-9,2,3,-6
373.98,-5,3,7,3
373.981,3,6,4,1
373.982,2,6,5,2
373.982,3,5,5,4
373.983,6,7,7,6
373.983,7,8,6,3
373.984,3,5,7,5
373.984,3,3,6,10
373.985,8,2,4,8
373.985,5,-2,-2,4
373.986,3,-3,-2,6
373.987,7,1,0,5
373.987,9,6,4,4
373.988,5,3,3,3
373.988,2,-1,0,7
373.989,6,-4,-5,4
373.99,4,-6,-7,4
373.99,4,-8,-12,-2
373.991,1,-8,-11,-2
373.991,0,-3,-3,3
373.992,5,3,3,5
373.992,6,8,8,7
373.993,9,14,15,12
373.993,14,20,19,13
373.994,10,12,13,6
373.995,3,6,4,0
373.995,0,4,1,-4
373.996,-1,6,2,-6
373.996,-2,5,0,-11
373.997,-7,0,-3,-14
373.997,-9,5,4,-4
373.998,0,11,9,1
373.999,3,11,9,1
373.999,1,6,2,-3
374,-1,0,-4,-7
374,-3,0,-4,-6
374.001,-1,2,-1,-6
374.002,-1,5,4,0
374.002,3,8,8,6
374.003,6,8,10,11
374.003,10,9,8,9
374.004,9,5,3,6
374.004,6,2,2,5
374.005,5,1,3,7
374.006,5,1,3,10
374.006,7,0,0,6
374.007,3,-4,-4,2
374.007,0,-7,-7,0
374.008,0,-7,-6,2
374.008,3,-2,0,9
374.009,9,0,1,13
374.01,14,0,0,13
374.01,11,-2,-5,4
374.011,5,-6,-9,-3
374.011,-1,-8,-13,-11
374.012,-4,-2,-3,-2
374.012,4,8,6,4
374.013,10,14,7,0
374.014,7,15,9,0
374.014,6,18,15,6
374.015,10,17,13,6
374.015,9,18,20,13
374.016,9,15,19,10
374.016,3,6,7,-2
374.017,-6,0,0,-8
374.018,-10,-2,0,-9
374.018,-11,-2,-3,-10
374.019,-8,0,-1,-9
374.019,-6,2,0,-6
374.02,-6,0,0,-3
374.02,-3,0,0,-2
374.021,-2,0,-1,-4
374.022,-6,-2,0,2
374.022,2,1,4,10
374.023,14,11,10,17
374.023,19,10,7,13
374.024,12,1,-3,0
374.025,0,-4,-5,-1
374.025,0,0,3,10
374.026,10,5,5,10
374.026,11,5,3,6
374.027,9,4,1,3
374.027,5,4,1,0
374.028,1,1,2,4
374.029,4,3,4,5
374.029,3,-1,0,4
374.03,2,-2,0,9
374.03,7,-1,0,7
374.031,5,-6,-6,3
374.031,3,-6,-9,-1
374.032,4,0,-1,2
374.033,6,6,5,6
374.033,9,9,5,3
374.034,5,8,6,2
374.034,4,8,9,7
374.035,6,7,8,5
374.035,5,7,3,1
374.036,6,9,3,-1
374.037,3,10,3,-3
374.037,0,6,2,-4
374.038,-2,4,2,-7
374.038,-8,0,0,-12
374.039,-13,-3,-4,-15
374.039,-13,0,3,-4
374.04,-5,3,7,3
374.041,3,6,5,5
374.041,6,8,7,7
374.042,10,10,7,7
374.042,9,6,2,3
374.043,6,2,-4,-2
374.043,1,0,-5,-5
374.044,-1,1,0,0
374.045,4,6,7,7
374.045,7,8,12,13
374.046,10,6,8,10
374.046,6,0,-1,1
374.047,0,-3,-2,1
374.047,1,0,0,4
374.048,4,1,1,4
374.049,3,0,0,3
374.049,1,-3,0,6
374.05,5,-1,0,6
374.05,6,0,0,6
374.051,5,-2,0,9
374.051,9,1,3,14
374.052,13,3,3,11
374.053,11,2,0,2
374.053,4,3,0,1
374.054,2,2,0,0
374.054,1,2,0,-4
374.055,0,5,2,-2
374.055,1,10,7,0
374.056,4,14,10,0
374.057,2,9,3,-4
374.057,-1,7,4,-3
374.058,0,7,6,-1
374.058,1,10,8,-1
374.059,0,8,6,-2
374.059,-4,0,0,-5
374.06,-6,-2,-1,-4
374.061,-3,0,0,-2
374.061,-1,1,1,1
374.062,3,4,2,3
374.062,5,5,1,-2
374.063,0,5,1,-3
374.064,0,6,2,-4
374.064,0,6,6,4
374.065,6,8,10,12
374.065,12,8,7,11
374.066,10,3,0,5
374.066,5,0,0,3
374.067,3,0,3,9
374.068,8,0,1,11
374.068,9,-1,-1,8
374.069,5,-8,-6,4
374.069,2,-10,-8,3
374.07,2,-9,-7,1
374.07,2,-6,-5,2
374.071,4,-1,0,8
374.072,11,9,7,12
374.072,15,11,7,8
374.073,10,9,5,2
374.073,3,3,1,0
374.074,3,6,4,1
374.075,3,5,3,0
374.075,2,8,6,0
374.076,1,8,5,-5
374.076,-1,7,2,-8
374.077,-3,7,4,-4
374.077,0,11,8,0
374.078,3,11,8,1
374.079,3,10,6,-3
374.079,-3,3,1,-7
374.08,-8,0,3,0
374.08,0,6,5,-2
374.081,-3,2,1,-3
374.081,-4,-1,0,0
374.082,-1,-1,0,0
374.083,2,-1,-6,-4
374.083,1,1,0,2
374.084,5,5,6,6
374.084,5,5,6,8
374.085,5,2,4,7
374.085,5,1,3,7
374.086,5,3,4,8
374.087,8,7,8,9
374.087,9,6,5,7
374.088,7,3,2,5
374.088,5,0,0,6
374.089,4,-4,-5,2
374.089,2,-6,-6,5
374.09,5,-4,-4,6
374.091,7,0,0,7
374.091,7,2,0,5
374.092,6,3,1,2
374.092,4,2,0,0
374.093,2,2,2,2
374.093,4,6,4,3
374.094,4,4,3,2
374.095,5,7,5,2
374.095,7,12,8,1
374.096,5,12,8,0
374.096,1,10,6,-4
374.097,-1,7,4,-6
374.097,-3,6,3,-6
374.098,-4,4,2,-6
374.099,-6,-1,-1,-6
374.099,-4,0,0,-1
374.1,0,2,3,2
374.1,3,3,2,2
374.101,4,4,5,4
374.102,5,6,5,4
374.102,5,6,4,1
374.103,3,4,2,0
374.103,1,4,4,1
374.104,2,5,4,1
374.104,1,4,6,3
374.105,1,2,4,5
374.106,2,-2,-2,3
374.106,0,-6,-5,2
374.107,4,-4,-4,5
374.107,8,0,0,9
374.108,12,4,2,10
374.108,12,4,1,8
374.109,7,-1,-3,3
374.11,3,-2,-6,-2
374.11,0,-1,-2,0
374.111,1,1,3,6
374.111,7,4,3,5
374.112,7,5,4,5
374.112,7,6,8,9
374.113,9,4,3,8
374.114,10,6,6,12
374.114,12,8,5,7
374.115,6,4,2,-2
374.115,-2,1,-1,-6
374.116,-6,1,0,-8
374.116,-5,5,3,-4
374.117,-1,8,6,-3
374.118,0,11,7,-4
374.118,-1,9,7,-2
374.119,0,9,6,-2
374.119,-1,4,2,-4
374.12,-3,0,0,-1
374.12,0,1,3,1
374.121,1,3,3,2
374.122,2,1,1,1
374.122,1,0,-1,-2
374.123,0,0,0,4
374.123,5,3,2,7
374.124,8,4,2,6
374.124,6,2,1,4
374.125,5,0,1,7
374.126,7,1,1,8
374.126,9,5,5,8
374.127,8,4,2,3
374.127,4,5,6,5
374.128,3,0,1,3
374.128,0,-6,-5,2
374.129,0,-7,-3,7
374.13,6,-5,-6,3
374.13,5,0,-2,1
374.131,3,-1,0,3
374.131,4,2,3,7
374.132,8,5,7,10
374.133,11,10,11,11
374.133,10,8,7,4
374.134,3,4,2,0
374.134,1,4,3,1
374.135,2,6,2,-4
374.135,0,5,0,-8
374.136,-2,9,6,-3
374.136,3,14,8,0
374.137,4,12,6,-2
374.138,1,9,5,-5
374.138,-4,3,0,-11
374.139,-9,0,1,-6
374.139,-6,1,1,-2
374.14,-2,3,5,2
374.14,1,3,3,1
374.141,1,2,2,4
374.142,3,2,2,4
374.142,5,3,3,5
374.143,5,3,2,5
374.143,6,1,-4,-4
374.144,-2,-1,-3,0
374.145,2,4,5,8
374.145,9,6,7,12
374.146,11,4,3,8
374.146,6,-1,-4,1
374.147,2,0,1,6
374.147,7,3,4,7
374.148,5,0,0,5
374.149,3,-4,-3,4
374.149,4,-4,-2,7
374.15,6,-2,-2,6
374.15,7,-1,-4,1
374.151,5,-2,-4,2
374.151,7,2,0,6
374.152,10,8,7,9
374.153,12,14,16,14
374.153,11,13,14,8
374.154,2,2,1,-1
374.154,-1,0,0,0
374.155,0,4,3,0
374.156,1,6,1,-3
374.156,0,7,6,-1
374.157,0,5,1,-9
374.157,-6,3,-2,-14
374.158,-10,2,-1,-11
374.158,-6,2,2,-3
374.159,-1,2,0,0
374.159,1,1,-1,-2
374.16,0,3,5,4
374.161,4,8,10,5
374.161,3,6,7,3
374.162,2,6,8,5
374.162,5,9,8,4
374.163,6,10,7,0
374.163,0,3,3,0
374.164,-1,1,2,1
374.165,0,1,4,6
374.165,5,3,4,9
374.166,7,1,2,10
374.166,8,-1,-1,5
374.167,3,-3,-5,0
374.167,0,-5,-4,2
374.168,3,-1,0,8
374.169,9,1,0,11
374.169,14,5,2,10
374.17,13,5,2,8
374.17,9,0,-4,0
374.171,1,-3,-6,-2
374.172,1,1,1,3
374.172,5,5,5,6
374.173,6,7,6,5
374.173,7,11,9,2
374.174,5,12,9,2
374.174,3,9,7,0
374.175,0,6,3,0
374.176,0,1,-1,-6
374.176,-5,-2,-7,-14
374.177,-11,-3,-4,-12
374.177,-9,2,1,-7
374.178,-3,7,6,-2
374.179,2,13,14,7
374.179,9,14,15,12
374.18,9,8,9,10
374.18,8,2,0,2
374.181,2,-1,-6,-6
374.181,-3,-1,-1,0
374.182,0,1,0,-3
374.183,-2,0,-2,-8
374.183,-6,1,2,-1
374.184,0,5,7,7
374.184,6,7,8,11
374.185,11,7,7,12
374.185,11,7,6,12
374.186,12,3,3,9
374.186,9,0,-2,4
374.187,4,-4,-7,-1
374.188,0,-6,-8,-2
374.188,0,-4,-3,2
374.189,2,-2,0,7
374.189,7,0,0,8
374.19,9,0,0,8
374.19,7,0,0,9
374.191,9,3,3,10
374.192,9,5,6,10
374.192,9,5,4,5
374.193,6,5,4,2
374.193,3,4,3,0
374.194,2,3,2,0
374.194,2,6,3,-1
374.195,2,9,4,-5
374.196,-1,8,5,-5
374.196,-2,8,6,-4
374.197,-2,9,7,-2
374.197,0,10,7,-2
374.198,0,7,3,-6
374.199,-4,4,2,-5
374.199,-4,4,4,-1
374.2,0,4,3,-2
374.2,-2,0,-1,-4
374.201,-5,-4,-3,-1
374.201,-2,-3,-3,0
374.202,2,1,0,0
374.202,5,4,2,1
374.203,6,7,5,4
374.204,7,8,8,10
374.204,11,7,7,11
374.205,12,8,12,16
374.205,12,7,8,11
374.206,6,0,0,3
374.207,0,-2,-2,0
374.207,0,-1,-1,0
374.208,-1,-4,-3,0
374.208,1,-3,-3,3
374.209,3,-4,-3,6
374.209,5,-3,-2,6
374.21,6,-2,0,7
374.211,5,-2,1,10
374.211,10,3,6,12
374.212,11,6,6,10
374.212,10,7,4,4
374.213,6,5,1,0
374.213,3,4,1,0
374.214,1,4,2,0
374.215,4,10,5,0
374.215,4,11,5,-3
374.216,0,9,4,-5
374.216,-2,7,3,-8
374.217,-4,7,3,-6
374.217,-2,7,4,-6
374.218,-3,5,3,-6
374.219,-3,6,5,-3
374.219,-3,2,3,0
374.22,-1,2,3,1
374.22,0,2,4,3
374.221,2,4,4,3
374.221,2,3,3,2
374.222,3,2,1,1
374.223,2,0,0,0
374.223,1,2,2,6
374.224,7,4,4,9
374.224,9,3,0,4
374.225,8,2,-3,2
374.225,6,1,-2,2
374.226,6,1,-1,4
374.227,7,2,0,4
374.227,7,3,0,4
374.228,7,3,2,6
374.228,5,0,3,9
374.229,5,-3,-2,5
374.23,3,-4,-2,6
374.23,5,-1,3,11
374.231,8,0,3,11
374.231,8,1,0,6
374.232,5,1,0,0
374.232,3,4,2,1
374.233,4,6,4,3
374.234,5,8,7,5
374.234,5,6,2,0
374.235,2,7,3,-2
374.235,0,8,7,-2
374.236,0,9,5,-5
374.236,-3,6,2,-7
374.237,-3,6,2,-9
374.238,-7,4,2,-7
374.238,-5,6,7,1
374.239,2,8,4,-1
374.239,-1,4,2,-2
374.24,-1,4,4,0
374.24,0,4,4,2
374.241,2,2,3,6
374.242,6,2,0,1
374.242,1,0,-1,0
374.243,0,2,3,4
374.243,5,5,3,3
374.244,3,2,3,5
374.244,4,1,2,6
374.245,5,2,4,10
374.246,8,3,5,9
374.246,8,2,1,5
374.247,3,-1,-2,1
374.247,2,-1,-1,2
374.248,3,0,0,5
374.248,3,-2,0,5
374.249,5,-2,-1,7
374.25,7,0,1,9
374.25,9,1,0,8
374.251,8,0,0,7
374.251,8,1,0,6
374.252,8,4,3,5
374.252,7,5,4,4
374.253,5,4,2,2
374.254,4,4,2,0
374.254,3,5,1,-1
374.255,2,6,1,-4
374.255,0,7,1,-6
374.256,-1,8,3,-9
374.257,-4,9,5,-9
374.257,-6,10,8,-8
374.258,-6,9,8,-3
374.258,-3,9,8,-1
374.259,0,6,4,-2
374.259,0,5,4,0
374.26,1,4,4,1
374.261,2,4,3,2
374.261,3,2,1,2
374.262,4,3,1,3
374.262,5,4,3,4
374.263,5,3,3,4
374.263,3,0,1,4
374.264,2,-1,0,4
374.265,3,0,0,5
374.265,5,1,2,7
374.266,7,2,0,5
374.266,7,1,0,4
374.267,6,1,0,4
374.268,6,3,2,7
374.268,5,1,3,7
374.269,5,-3,-1,6
374.269,3,-5,-4,5
374.27,4,-4,-2,4
374.27,3,-3,-2,7
374.271,7,1,3,9
374.271,10,6,7,9
374.272,8,5,5,6
374.273,6,5,3,2
374.273,2,4,2,0
374.274,0,3,2,0
374.275,1,6,3,-2
374.275,1,8,5,-2
374.276,0,9,6,-3
374.276,0,10,5,-5
374.277,0,9,5,-5
374.277,-1,8,3,-6
374.278,-3,5,0,-7
374.278,-2,4,0,-6
374.279,-3,4,1,-3
374.28,0,4,2,0
374.28,1,5,3,1
374.281,4,7,6,4
374.281,5,7,7,6
374.282,5,6,7,6
374.282,4,1,3,4
374.283,2,-1,0,2
374.284,1,-2,-2,2
374.284,2,0,0,4
374.285,3,0,1,5
374.285,4,0,3,7
374.286,4,1,2,7
374.286,5,0,1,6
374.287,5,-1,-1,5
374.288,5,0,1,7
374.288,7,2,2,8
374.289,6,1,4,9
374.289,5,-2,-2,3
374.29,2,-4,-4,2
374.29,1,-3,0,7
374.291,6,3,8,13
374.292,7,3,6,10
374.292,8,6,5,5
374.293,6,5,1,-1
374.293,1,1,-6,-8
374.294,-1,1,-4,-7
374.294,0,5,-3,-8
374.295,3,12,-1,-9
374.296,6,18,7,-5
374.296,6,19,11,-1
374.297,4,14,6,-5
374.297,0,13,11,1
374.298,3,14,17,7
374.299,2,10,14,5
374.299,-1,-1,0,-4
374.3,-9,-11,-12,-11
374.3,-9,-8,-8,-7
374.301,-3,1,5,6
374.301,3,4,8,8
374.302,4,2,3,4
374.302,1,-3,-2,1
374.303,1,-1,0,5
374.304,4,4,10,13
374.304,7,3,7,10
374.305,7,3,4,7
374.305,6,3,1,4
374.306,5,1,-4,-1
374.307,4,1,-4,-2
374.307,4,-1,-9,-3
374.308,6,1,-5,0
374.308,9,5,3,10
374.309,10,5,8,13
374.309,9,3,10,16
374.31,8,0,5,10
374.311,4,-4,-2,5
374.311,3,-1,0,4
374.312,2,0,0,3
374.312,1,-4,-6,-4
374.313,0,0,0,1
374.313,6,9,10,9
374.314,9,9,3,1
374.315,5,6,-3,-8
374.315,1,5,-9,-14
374.316,2,10,-5,-11
374.316,3,13,0,-6
374.317,7,16,10,1
374.317,6,14,11,4
374.318,5,14,16,6
374.319,6,20,27,13
374.319,4,15,27,15
374.32,-3,0,12,2
374.32,-16,-16,-9,-14
374.321,-24,-24,-22,-21
374.321,-20,-17,-17,-15
374.322,-9,-8,-12,-10
374.323,0,2,-3,0
374.323,11,12,6,9
374.324,17,15,7,9
374.324,15,11,5,8
374.325,13,12,10,12
374.325,13,12,16,19
374.326,12,8,13,15
374.327,7,0,3,7
374.327,1,-5,-6,-1
374.328,-2,-9,-8,0
374.328,-1,-10,-9,2
374.329,3,-5,0,11
374.329,6,-2,5,17
374.33,9,0,5,15
374.331,9,5,15,19
374.331,7,0,6,7
374.332,0,-5,-2,-3
374.332,-4,-1,0,-3
374.333,-6,-4,-4,-8
374.333,-9,-7,-12,-14
374.334,-2,6,-1,-6
374.335,7,18,9,0
374.335,11,19,7,-3
374.336,8,18,4,-5
374.336,5,15,3,-5
374.337,6,13,-1,-7
374.337,7,17,4,-3
374.338,10,20,11,1
374.339,8,17,13,4
374.339,5,9,6,0
374.34,0,4,4,0
374.34,-1,1,2,0
374.341,-4,0,5,2
374.342,-4,-3,4,3
374.342,-5,-7,-3,-1
374.343,-5,-9,-6,-3
374.343,-4,-6,-4,0
374.344,0,-3,-3,1
374.344,2,-2,-4,1
374.345,4,0,-1,3
374.346,7,4,3,10
374.346,12,7,3,10
374.347,15,9,1,7
374.347,13,10,6,11
374.348,13,8,8,11
374.348,8,3,8,13
374.349,6,-2,2,8
374.35,1,-5,0,5
374.35,0,-9,-3,4
374.351,0,-6,-3,2
374.351,1,-2,0,4
374.352,3,0,0,1
374.352,4,3,0,0
374.353,5,7,3,2
374.354,7,10,5,2
374.354,6,14,10,3
374.355,3,12,10,0
374.355,0,8,4,-5
374.356,-4,8,7,-5
374.356,-5,8,10,-3
374.357,-7,3,5,-7
374.358,-9,3,8,-1
374.358,-5,6,12,2
374.359,-4,0,2,-4
374.359,-8,-5,-4,-7
374.36,-7,-1,1,0
374.361,-1,1,0,1
374.361,2,2,0,1
374.362,6,5,2,3
374.362,8,5,-1,1
374.363,8,5,-1,1
374.363,8,7,2,5
374.364,9,7,4,7
374.365,11,8,4,8
374.365,10,6,2,6
374.366,7,2,0,3
374.366,4,0,0,4
374.367,4,0,3,7
374.367,5,2,6,9
374.368,5,3,7,10
374.368,4,-2,0,6
374.369,0,-9,-7,0
374.37,-2,-8,-6,3
374.37,3,-3,0,8
374.371,7,0,0,6
374.371,6,1,1,4
374.372,6,5,3,3
374.373,6,9,9,5
374.373,4,7,5,1
374.374,3,9,8,2
374.374,3,10,11,3
374.375,0,10,13,2
374.375,-2,3,2,-6
374.376,-6,-1,-8,-15
374.377,-8,0,-7,-14
374.377,-3,9,6,-1
374.378,3,10,5,0
374.378,2,9,3,-1
374.379,3,8,3,0
374.379,4,7,0,-2
374.38,5,6,0,-2
374.381,6,5,-3,-3
374.381,5,4,-4,-2
374.382,5,6,-2,0
374.382,8,8,3,6
374.383,10,11,12,12
374.383,9,6,12,13
374.384,6,1,4,6
374.385,2,-5,-6,-1
374.385,0,-6,-8,-3
374.386,0,-5,-7,-1
374.386,1,-1,0,6
374.387,9,5,7,11
374.387,9,5,8,11
374.388,8,2,8,14
374.389,6,-3,2,9
374.389,1,-6,1,10
374.39,1,-7,1,10
374.39,3,-7,-4,6
374.391,4,-2,-2,2
374.392,2,0,-1,0
374.392,0,0,1,0
374.393,2,5,7,5
374.393,4,10,13,9
374.394,6,10,13,7
374.394,3,6,7,0
374.395,-3,1,0,-7
374.396,-4,2,-6,-12
374.396,-1,7,-4,-12
374.397,0,13,3,-7
374.397,1,9,0,-8
374.398,0,8,0,-5
374.398,2,11,7,2
374.399,6,13,15,11
374.4,7,9,11,7
374.4,1,0,0,-2
374.401,-4,-3,-3,-3
374.401,-1,0,2,2
374.402,1,2,3,3
374.402,1,-1,-1,1
374.403,3,0,0,4
374.404,5,4,6,9
374.404,7,4,8,11
374.405,6,1,5,9
374.405,4,-2,0,4
374.406,1,-4,-2,3
374.406,3,-2,-3,2
374.407,4,0,-1,2
374.408,4,0,-2,2
374.408,4,-1,-1,6
374.409,8,0,1,9
374.409,10,1,0,8
374.41,9,0,-3,4
374.411,7,1,0,7
374.411,10,7,8,10
374.412,11,7,7,8
374.412,8,5,2,1
374.413,3,3,0,-2
374.413,1,2,0,-2
374.414,0,5,2,-1
374.415,2,8,6,0
374.415,3,10,6,-2
374.416,0,9,6,-3
374.416,-2,6,6,-3
374.417,-4,3,3,-5
374.417,-5,5,5,-2
374.418,-2,5,6,-1
374.418,-2,2,4,-2
374.419,-4,0,3,0
374.42,-4,0,5,4
374.42,0,0,0,1
374.421,2,0,-3,-2
374.421,2,1,-4,-1
374.422,4,1,-4,-1
374.423,6,6,0,1
374.423,10,7,0,4
374.424,12,10,2,5
374.424,13,12,7,9
374.425,12,11,11,12
374.425,8,4,7,9
374.426,5,2,8,11
374.427,4,-1,0,3
374.427,0,-6,-6,-2
374.428,-3,-9,-10,-4
374.428,-4,-11,-11,-1
374.429,1,-5,-6,4
374.429,9,2,-1,7
374.43,12,3,-1,6
374.431,13,8,5,11
374.431,13,7,5,9
374.432,12,7,4,6
374.432,9,8,5,4
374.433,6,6,3,0
374.433,2,5,4,1
374.434,1,7,8,1
374.435,0,10,12,2
374.435,0,11,14,2
374.436,-3,5,5,-5
374.436,-8,0,0,-10
374.437,-10,-1,0,-8
374.438,-8,2,5,-3
374.438,-5,3,5,-2
374.439,-3,1,0,-4
374.439,-3,2,0,-3
374.44,-1,0,-2,-4
374.44,0,1,-4,-2
374.441,3,4,1,3
374.441,10,12,12,12
374.442,13,11,9,11
374.443,11,8,6,7
374.443,5,4,6,7
374.444,2,0,2,4
374.444,0,-4,-1,1
374.445,1,-4,-3,1
374.445,3,-2,-4,0
374.446,4,-1,-4,0
374.447,6,2,0,5
374.447,9,5,3,9
374.448,10,3,2,9
374.448,8,1,3,9
374.449,6,-1,0,8
374.449,6,0,3,10
374.45,6,0,2,9
374.451,7,1,2,6
374.451,4,-2,-5,-1
374.452,2,-1,-5,-3
374.452,1,3,1,2
374.453,5,7,5,4
374.453,6,10,8,4
374.454,6,11,8,1
374.455,3,9,7,-1
374.455,0,8,5,-4
374.456,-2,6,3,-6
374.456,-2,7,3,-6
374.457,-3,7,5,-5
374.458,-4,4,1,-6
374.458,-4,2,1,-4
374.459,-3,2,1,-2
374.459,0,3,1,0
374.46,2,5,4,2
374.46,4,6,5,3
374.461,3,3,2,0
374.462,2,2,2,3
374.462,4,4,6,7
374.463,6,4,4,5
374.463,4,2,2,5
374.464,4,0,0,4
374.464,4,0,0,4
374.465,5,0,0,5
374.466,6,1,0,3
374.466,4,0,-1,3
374.467,4,2,2,5
374.467,5,2,2,6
374.468,3,-3,-5,1
374.468,3,-2,-4,2
374.469,7,1,1,7
374.47,8,2,2,7
374.47,8,2,3,8
374.471,8,4,3,8
374.471,9,5,5,8
374.472,8,7,5,5
374.472,5,4,3,0
374.473,1,2,1,0
374.474,0,4,2,0
374.474,1,7,4,0
374.475,1,8,4,-2
374.475,0,8,5,-3
374.476,0,7,3,-5
374.477,-2,7,3,-6
374.477,-3,5,2,-5
374.478,-3,4,1,-5
374.478,-2,5,3,-3
374.479,-1,2,3,-1
374.479,0,3,3,1
374.48,2,6,5,2
374.481,3,6,8,7
374.481,3,5,9,7
374.482,1,0,5,5
374.482,0,-2,0,1
374.483,0,-3,-5,-1
374.483,1,0,-1,1
374.484,3,1,2,5
374.485,5,0,0,5
374.485,6,1,-1,5
374.486,10,5,2,7
374.486,10,4,1,6
374.487,8,0,-2,3
374.487,6,0,-1,4
374.488,6,0,1,8
374.489,8,2,4,10
374.489,8,2,5,9
374.49,5,0,1,6
374.49,3,-2,-3,4
374.491,4,0,-1,3
374.491,5,5,8,9
374.492,5,4,5,4
374.493,2,0,-2,-2
374.493,1,1,-4,-4
374.494,3,7,1,-2
374.494,5,10,3,-1
374.495,4,10,2,-5
374.495,0,8,0,-7
374.496,0,12,8,0
374.497,3,15,16,5
374.497,2,10,10,0
374.498,-2,3,4,-3
374.498,-5,0,0,-3
374.499,-3,0,-1,-4
374.499,-1,0,0,-2
374.5,-1,1,0,-1
374.501,0,2,0,0
374.501,4,6,4,4
374.502,8,9,7,6
374.502,7,6,5,3
374.503,2,3,6,5
374.503,1,0,5,7
374.504,2,0,4,7
374.505,3,0,2,5
374.505,1,-3,-3,1
374.506,0,-6,-8,-2
374.506,0,-6,-9,-2
374.507,4,2,0,5
374.507,10,6,4,9
374.508,10,3,3,10
374.509,8,1,2,10
374.509,8,2,6,13
374.51,9,1,6,12
374.51,7,1,1,6
374.511,5,1,3,5
374.511,2,0,0,0
374.512,0,-1,-3,-1
374.513,1,2,0,0
374.513,3,5,2,0
374.514,3,8,4,-1
374.514,1,7,3,-2
374.515,2,9,4,-3
374.515,2,11,6,-3
374.516,1,12,9,-1
374.517,0,7,5,-3
374.517,-2,3,0,-8
374.518,-3,3,-1,-5
374.518,0,5,2,0
374.519,2,6,4,1
374.52,1,5,4,2
374.52,2,5,7,4
374.521,2,4,9,8
374.521,3,2,6,6
374.522,1,-2,-2,0
374.522,-1,-3,-3,-1
374.523,0,-3,-3,1
374.524,4,2,2,6
374.524,7,5,7,9
374.525,6,2,4,7
374.525,3,-1,0,5
374.526,4,0,0,5
374.526,6,1,-2,2
374.527,6,4,3,6
374.528,7,2,2,8
374.528,6,-1,0,7
374.529,6,-2,-3,4
374.529,7,0,-2,4
374.53,6,0,-1,4
374.53,8,1,-2,1
374.531,6,4,2,5
374.532,9,9,6,5
374.532,7,8,5,4
374.533,4,5,4,1
374.533,2,6,6,1
374.534,2,7,7,1
374.534,1,7,5,-3
374.535,-1,6,0,-9
374.536,-5,2,-3,-11
374.536,-4,5,1,-7
374.537,-2,7,7,0
374.537,1,10,9,0
374.538,1,9,9,1
374.539,0,3,4,0
374.539,0,0,1,0
374.54,0,1,2,0
374.54,0,0,0,0
374.541,0,1,0,0
374.541,1,1,0,1
374.542,1,1,0,1
374.543,3,3,2,4
374.543,5,5,5,6
374.544,7,6,5,6
374.544,5,3,4,5
374.545,5,1,1,5
374.545,5,1,1,5
374.546,6,2,1,6
374.547,7,2,1,5
374.547,5,1,0,5
374.548,4,-1,0,6
374.548,4,-1,3,10
374.549,5,-1,4,11
374.549,4,-3,0,8
374.55,3,-5,-2,3
374.551,2,-3,-3,1
374.551,2,-2,-5,0
374.552,5,2,-2,0
374.552,6,6,0,0
374.553,9,11,2,1
374.553,10,13,5,1
374.554,9,16,10,3
374.555,6,14,11,2
374.555,3,12,12,1
374.556,0,7,7,-3
374.556,-3,4,2,-7
374.557,-6,0,0,-8
374.557,-8,-1,-3,-9
374.558,-6,0,-1,-6
374.559,-3,3,4,0
374.559,0,4,4,0
374.56,1,5,4,1
374.56,2,4,3,2
374.561,2,4,4,4
374.562,4,4,3,3
374.562,4,5,6,7
374.563,5,2,2,4
374.563,4,0,-2,2
374.564,4,0,-3,0
374.564,5,1,-3,1
374.565,6,2,-1,3
374.565,7,5,3,6
374.566,7,4,5,8
374.567,7,6,11,14
374.567,7,4,12,15
374.568,4,-4,0,5
374.568,0,-9,-7,0
374.569,0,-7,-6,1
374.569,1,-6,-5,3
374.57,4,-1,-2,5
374.571,8,2,0,5
374.571,9,5,3,5
374.572,9,8,5,4
374.572,7,9,5,3
374.573,6,8,5,1
374.574,4,10,7,0
374.574,2,11,11,2
374.575,0,9,9,-1
374.575,-3,4,2,-7
374.576,-6,1,-3,-12
374.576,-6,2,-1,-10
374.577,-4,6,2,-5
374.578,-1,7,6,0
374.578,0,4,2,-1
374.579,0,3,2,1
374.579,3,3,0,-1
374.58,2,4,2,1
374.58,4,6,7,5
374.581,4,4,6,7
374.582,5,4,5,6
374.582,6,3,5,6
374.583,5,2,2,4
374.583,2,-1,-3,0
374.584,0,-4,-4,0
374.584,2,0,1,6
374.585,6,2,4,9
374.586,8,2,2,6
374.586,6,1,0,5
374.587,5,0,0,4
374.587,5,0,0,5
374.588,5,-1,0,7
374.589,6,-1,-1,6
374.589,6,0,0,6
374.59,6,0,0,6
374.59,7,3,3,7
374.591,7,4,3,6
374.591,6,3,1,3
374.592,4,3,0,0
374.592,3,5,5,2
374.593,3,8,9,5
374.594,2,7,8,1
374.594,0,3,2,-3
374.595,0,6,2,-6
374.595,-3,6,3,-5
374.596,-2,5,2,-7
374.596,-2,4,-3,-11
374.597,-3,2,-6,-13
374.598,0,9,0,-5
374.598,2,11,5,0
374.599,4,10,7,4
374.599,6,10,11,7
374.6,6,9,10,8
374.6,4,6,9,8
374.601,1,1,6,5
374.602,-1,-3,1,2
374.602,-2,-6,-3,0
374.603,-1,-4,-3,0
374.603,2,-1,-1,2
374.604,5,0,-1,3
374.605,6,1,-1,3
374.605,7,2,0,4
374.606,9,6,5,9
374.606,9,6,5,8
374.607,6,1,2,6
374.607,4,-2,0,6
374.608,5,-4,-2,6
374.609,6,-3,-2,6
374.609,7,-1,-2,4
374.61,6,-1,-2,4
374.61,6,1,0,4
374.611,8,5,2,4
374.611,7,7,4,3
374.612,6,8,6,3
374.613,4,6,4,1
374.613,2,5,3,0
374.614,2,8,7,0
374.614,1,9,8,0
374.615,0,8,6,-2
374.615,-2,6,3,-5
374.616,-3,5,2,-6
374.617,-3,5,4,-4
374.617,-2,6,5,-2
374.618,-1,5,4,-2
374.618,-2,2,2,-2
374.619,0,5,4,0
374.62,0,5,3,0
374.62,0,1,0,0
374.621,0,1,0,1
374.621,3,1,1,3
374.622,3,2,0,2
374.622,4,1,0,4
374.623,5,2,0,5
374.624,7,2,0,5
374.624,7,2,0,5
374.625,8,4,3,8
374.625,9,6,5,9
374.626,9,7,7,8
374.626,6,4,5,7
374.627,3,0,0,3
374.628,0,-7,-6,0
374.628,0,-8,-6,1
374.629,1,-4,-4,4
374.629,4,-2,-1,7
374.63,8,2,2,9
374.63,10,6,5,8
374.631,8,6,4,5
374.632,6,5,4,2
374.632,4,5,3,1
374.633,3,5,3,0
374.633,3,6,3,0
374.634,2,7,4,-2
374.634,0,7,3,-3
374.635,0,8,4,-3
374.636,0,9,5,-3
374.636,0,8,6,-2
374.637,-1,7,3,-4
374.637,-2,5,2,-4
374.638,-3,3,3,-2
374.638,-1,2,0,-2
374.639,0,3,0,-1
374.64,2,3,1,0
374.64,2,3,2,1
374.641,3,3,4,5
374.641,6,6,7,8
374.642,6,5,5,8
374.642,5,3,6,8
374.643,3,0,3,6
374.644,1,-3,-1,3
374.644,1,-2,-2,2
374.645,3,0,0,3
374.645,4,0,-1,2
374.646,2,-1,-3,0
374.646,4,0,-3,1
374.647,6,1,-3,2
374.648,7,0,-2,4
374.648,8,3,4,11
374.649,11,5,7,12
374.649,8,0,-2,3
374.65,7,2,0,5
374.65,8,7,7,10
374.651,8,5,5,6
374.652,5,3,3,2
374.652,2,3,3,2
374.653,2,4,3,0
374.653,2,6,3,-3
374.654,-1,4,3,-4
374.655,-3,6,5,-3
374.655,-1,7,6,-2
374.656,-1,7,5,-4
374.656,-1,5,2,-6
374.657,-4,2,0,-8
374.657,-4,3,0,-5
374.658,-2,4,2,0
374.659,2,6,4,1
374.659,3,6,4,2
374.66,1,4,3,1
374.66,2,3,4,4
374.661,4,4,4,5
374.661,5,4,4,5
374.662,4,2,2,3
374.663,2,0,0,3
374.663,3,0,2,6
374.664,5,2,3,7
374.664,5,0,1,5
374.665,5,0,-1,2
374.665,4,0,-2,3
374.666,4,0,-1,4
374.667,5,1,0,5
374.667,6,0,-1,4
374.668,6,-1,-2,5
374.668,6,0,1,8
374.669,7,1,4,10
374.669,7,0,1,8
374.67,8,1,0,6
374.671,7,2,0,3
374.671,6,4,1,2
374.672,5,4,1,1
374.672,2,3,0,-2
374.673,2,3,-1,-3
374.673,4,11,5,0
374.674,4,14,11,1
374.675,3,11,7,-3
374.675,-1,8,4,-4
374.676,-2,7,5,-4
374.676,-2,6,4,-4
374.677,-4,3,3,-3
374.677,-2,3,3,-3
374.678,-3,2,2,0
374.679,-1,1,1,0
374.679,0,2,2,0
374.68,0,2,2,0
374.68,0,1,1,1
374.681,2,2,3,2
374.681,4,3,4,4
374.682,5,3,3,4
374.683,4,3,3,5
374.683,5,3,2,5
374.684,6,3,2,6
374.684,6,1,0,4
374.685,6,0,-2,2
374.685,6,1,0,3
374.686,7,4,2,6
374.687,7,2,2,8
374.687,6,-1,0,6
374.688,5,-3,0,7
374.688,5,-2,0,8
374.689,6,1,4,11
374.69,6,0,2,8
374.69,6,0,0,5
374.691,4,0,0,2
374.691,4,1,-1,0
374.692,2,2,0,-1
374.692,2,5,2,0
374.693,5,8,5,2
374.694,4,11,9,1
374.694,3,11,10,0
374.695,0,9,9,0
374.695,-1,6,5,-3
374.696,-4,4,2,-7
374.696,-6,2,1,-6
374.697,-5,3,1,-5
374.698,-4,2,1,-4
374.698,-3,1,0,-2
374.699,0,3,3,1
374.699,4,7,7,5
374.7,5,6,6,4
374.7,3,2,2,2
374.701,2,1,1,3
374.702,4,3,3,6
374.702,6,2,0,3
374.703,5,1,-2,0
374.703,4,2,-1,2
374.704,6,3,1,6
374.704,9,5,3,6
374.705,9,6,3,7
374.706,8,3,1,5
374.706,6,1,0,3
374.707,4,0,2,5
374.707,2,-4,-3,4
374.708,2,-5,-2,6
374.709,5,-1,0,7
374.709,5,-1,0,8
374.71,6,1,2,7
374.71,5,1,2,5
374.711,4,1,1,3
374.711,4,4,5,4
374.712,5,6,4,2
374.713,3,3,1,0
374.713,3,7,4,0
374.714,3,9,5,-1
374.714,1,8,6,-2
374.715,0,9,6,-2
374.716,-1,8,6,-3
374.716,-3,5,4,-5
374.717,-4,3,1,-6
374.717,-3,4,0,-6
374.718,-2,4,0,-4
374.718,0,4,0,-3
374.719,1,5,3,1
374.719,4,7,6,4
374.72,3,5,5,5
374.721,4,4,2,1
374.721,2,0,-3,0
374.722,2,0,-4,0
374.722,4,2,-1,2
374.723,7,6,4,8
374.723,9,6,6,9
374.724,9,6,7,10
374.725,7,5,8,10
374.725,5,0,5,7
374.726,1,-3,0,2
374.726,0,-4,-3,2
374.727,0,-4,-3,2
374.727,0,-4,0,6
374.728,3,-3,0,8
374.729,4,-3,-3,4
374.729,4,-3,-5,3
374.73,8,2,0,4
374.73,9,6,2,6
374.731,10,7,3,5
374.731,8,7,2,2
374.732,7,7,1,0
374.733,6,8,1,-1
374.733,5,10,4,0
374.734,3,10,9,1
374.734,3,13,13,3
374.735,2,10,10,0
374.735,-1,6,5,-4
374.736,-4,4,3,-6
374.737,-7,0,-1,-10
374.737,-8,-2,-4,-9
374.738,-6,0,0,-2
374.738,1,5,5,3
374.739,4,9,9,4
374.739,3,7,6,1
374.74,0,1,1,0
374.741,1,2,2,2
374.741,3,4,8,6
374.742,2,1,2,4
374.742,1,0,1,3
374.743,2,1,2,5
374.743,4,3,6,9
374.744,5,0,1,4
374.745,3,-2,-2,3
374.745,3,0,-1,3
374.746,4,0,0,5
374.746,7,3,0,5
374.747,7,1,0,6
374.748,5,-1,-1,6
374.748,6,-2,-3,6
374.749,8,1,1,8
374.749,10,2,0,8
374.75,10,3,0,5
374.75,7,3,0,4
374.751,6,5,4,4
374.752,6,6,4,2
374.752,4,5,2,0
374.753,1,4,2,0
374.753,1,6,4,0
374.754,1,7,6,-1
374.754,1,9,6,-2
374.755,0,8,4,-4
374.756,-2,5,3,-4
374.756,-1,4,1,-5
374.757,-2,4,1,-4
374.757,-1,5,2,-4
374.758,-1,4,3,-2
374.758,-2,2,3,-1
374.759,-1,3,4,0
374.76,0,3,2,1
374.76,2,3,4,2
374.761,3,5,5,5
374.761,4,3,3,4
374.762,4,2,2,4
374.762,5,3,3,5
374.763,6,3,3,5
374.764,4,0,0,4
374.764,5,1,0,4
374.765,5,0,0,5
374.765,6,2,0,3
374.766,5,2,0,4
374.766,5,0,0,4
374.767,3,-2,-3,3
374.768,4,-2,-1,7
374.768,6,0,0,8
374.769,7,1,0,7
374.769,7,2,3,8
374.77,8,3,4,7
374.771,7,3,3,5
374.771,5,4,4,3
374.772,4,5,4,1
374.772,1,3,3,0
374.773,0,3,1,-2
374.773,0,5,2,-3
374.774,0,6,1,-6
374.775,0,8,4,-5
374.775,0,9,6,-2
374.776,0,10,7,-2
374.776,0,8,5,-3
374.777,-1,6,4,-2
374.777,-2,5,2,-3
374.778,-2,3,1,-2
374.779,0,3,2,0
374.779,1,4,3,2
374.78,1,3,3,2
374.78,3,3,3,4
374.781,3,2,2,3
374.781,4,2,1,4
374.782,5,2,0,4
374.783,5,3,1,4
374.783,4,0,0,4
374.784,5,1,1,5
374.784,6,2,2,6
374.785,6,2,2,6
374.785,6,1,0,5
374.786,6,0,0,4
374.787,4,0,0,4
374.787,4,-3,-1,5
374.788,4,-2,0,7
374.788,7,0,1,7
374.789,7,1,1,8
374.789,8,2,2,7
374.79,8,3,3,5
374.791,6,4,3,4
374.791,5,4,2,1
374.792,2,4,1,0
374.792,1,3,3,1
374.793,2,7,6,1
374.794,1,7,4,-2
374.794,0,7,2,-6
374.795,-1,6,0,-8
374.795,-2,7,4,-5
374.796,0,9,6,-3
374.796,-1,7,2,-5
374.797,-1,6,2,-4
374.797,-1,5,4,-2
374.798,0,6,8,4
374.799,0,3,6,3
374.799,0,2,3,1
374.8,0,1,3,3
374.8,2,3,4,4
374.801,3,2,2,4
374.802,3,1,2,4
374.802,4,2,2,4
374.803,4,1,1,3
374.803,3,1,0,3
374.804,2,0,0,3
374.804,2,-1,0,4
374.805,4,1,1,6
374.806,7,2,1,6
374.806,7,2,0,4
374.807,5,0,-3,1
374.807,3,-5,-7,1
374.808,5,-2,-6,2
374.808,9,2,-2,5
374.809,11,5,4,11
374.81,12,8,9,13
374.81,11,6,6,9
374.811,8,6,9,9
374.811,4,5,8,6
374.812,0,-1,0,-1
374.812,-4,-1,1,0
374.813,-1,1,0,-3
374.814,-2,2,-1,-7
374.814,0,8,2,-6
374.815,0,7,0,-8
374.815,-1,7,0,-8
374.816,0,12,12,2
374.816,3,15,18,8
374.817,2,6,7,0
374.818,-2,0,0,-4
374.818,-4,-1,-1,-3
374.819,-2,0,0,-2
374.819,-1,0,0,0
374.82,1,2,2,2
374.82,4,4,4,5
374.821,6,5,4,5
374.822,5,2,0,1
374.822,3,0,0,2
374.823,4,3,2,6
374.823,7,4,3,7
374.824,8,3,2,6
374.824,7,1,0,4
374.825,5,0,0,5
374.826,4,0,1,6
374.826,6,3,3,7
374.827,5,0,0,5
374.827,3,-4,-4,3
374.828,3,-4,-3,5
374.829,6,0,0,7
374.829,8,1,2,9
374.83,10,5,4,7
374.83,8,5,3,5
374.831,5,4,3,3
374.831,2,3,3,3
374.832,2,3,1,0
374.833,2,4,1,-2
374.833,2,7,1,-4
374.834,1,7,0,-7
374.834,0,9,3,-4
374.835,1,13,9,0
374.835,1,12,10,0
374.836,0,9,8,-1
374.837,-3,5,4,-3
374.837,-4,1,1,-3
374.838,-4,0,1,-1
374.838,-1,1,2,1
374.839,1,3,3,1
374.839,1,1,1,1
374.84,0,1,1,0
374.841,1,1,1,1
374.841,1,1,0,1
374.842,4,3,2,3
374.842,6,5,2,3
374.843,6,5,6,7
374.843,6,4,5,8
374.844,5,1,2,6
374.845,5,0,2,6
374.845,5,2,3,6
374.846,4,0,2,5
374.846,3,-1,0,5
374.847,3,-2,-1,6
374.847,5,-2,0,8
374.848,6,-1,0,8
374.849,5,-3,-2,5
374.849,4,-3,-5,1
374.85,5,0,-4,1
374.85,7,5,2,5
374.851,9,8,6,5
374.852,8,8,3,2
374.852,5,6,2,0
374.853,4,8,4,0
374.853,4,11,7,0
374.854,3,10,7,-2
374.854,0,7,6,-4
374.855,-1,7,5,-4
374.856,-2,6,4,-5
374.856,-4,4,3,-6
374.857,-4,4,2,-4
374.857,-3,3,2,-3
374.858,-1,2,2,0
374.858,0,3,4,1
374.859,1,4,4,1
374.859,1,1,2,1
374.86,0,1,1,2
374.861,3,1,1,4
374.861,5,3,1,4
374.862,5,2,2,4
374.862,5,3,2,5
374.863,5,1,2,6
374.864,5,2,2,6
374.864,6,2,1,5
374.865,5,1,0,4
374.865,4,0,0,4
374.866,5,1,0,5
374.866,7,1,1,5
374.867,5,-2,-1,4
374.868,4,-2,-1,6
374.868,5,-1,0,6
374.869,6,0,0,7
374.869,7,2,2,8
374.87,8,3,3,6
374.87,6,3,2,4
374.871,5,4,1,1
374.872,3,4,2,0
374.872,3,5,3,0
374.873,3,6,3,-1
374.873,1,7,4,-2
374.874,0,10,6,-1
374.874,0,10,6,-3
374.875,-2,6,1,-7
374.876,-3,5,1,-6
374.876,-2,6,2,-5
374.877,-1,7,5,-2
374.877,-1,6,6,0
374.878,0,4,7,2
374.878,2,5,6,3
374.879,0,2,4,2
374.88,0,1,5,5
374.88,0,0,4,4
374.881,0,0,0,2
374.882,0,-1,0,3
374.882,2,0,1,4
374.883,4,1,3,6
374.883,5,0,0,4
374.884,5,0,-2,3
374.884,5,0,-3,2
374.885,7,2,-3,2
374.885,8,3,0,5
374.886,10,5,2,6
374.887,9,3,1,7
374.887,7,0,-2,5
374.888,8,1,1,8
374.888,9,3,4,8
374.889,7,1,1,6
374.889,5,1,1,5
374.89,5,1,1,5
374.891,6,4,2,2
374.891,2,4,2,1
374.892,2,4,3,1
374.892,2,4,2,0
374.893,2,6,3,-1
374.893,1,6,4,-3
374.894,0,8,4,-4
374.895,-2,6,4,-4
374.895,0,8,5,-3
374.896,0,9,6,-2
374.896,0,6,5,-3
374.897,-2,5,3,-4
374.897,-3,2,2,-1
374.898,-1,2,4,2
374.899,1,4,4,0
374.899,1,1,0,0
374.9,0,1,0,0
374.9,1,2,1,3
374.901,4,3,4,6
374.901,6,4,3,5
374.902,6,4,3,5
374.903,4,0,0,4
374.903,4,1,1,5
374.904,4,0,2,6
374.904,5,1,2,5
374.905,6,1,1,6
374.905,5,1,1,5
374.906,5,0,1,5
374.907,3,-2,-1,5
374.907,5,-3,-5,3
374.908,4,-2,-3,5
374.908,7,0,0,7
374.909,7,1,1,8
374.909,8,4,4,7
374.91,8,4,3,5
374.911,6,6,4,4
374.911,5,5,3,2
374.912,4,5,2,0
374.912,2,5,3,0
374.913,1,7,6,0
374.913,1,8,5,-3
374.914,0,8,5,-4
374.915,-1,6,3,-6
374.915,-3,6,3,-5
374.916,-3,4,1,-6
374.916,-3,4,0,-5
374.917,0,5,0,-4
374.918,0,4,1,-1
374.918,2,5,5,3
374.919,3,6,6,5
374.919,4,6,5,5
374.92,5,4,4,5
374.92,5,2,2,4
374.921,3,1,2,4
374.922,2,0,1,3
374.922,2,0,0,2
374.923,1,0,0,2
374.923,2,1,0,2
374.924,2,0,0,1
374.924,3,1,0,2
374.925,5,4,5,6
374.926,7,5,6,9
374.926,6,2,3,6
374.927,4,-2,-1,5
374.927,3,-4,-2,6
374.928,4,-2,0,9
374.928,7,0,1,9
374.929,7,1,2,7
374.93,7,3,3,7
374.93,7,3,2,3
374.931,5,4,1,1
374.931,4,5,3,2
374.932,2,5,3,1
374.932,2,6,3,-1
374.933,1,6,1,-4
374.934,0,7,2,-5
374.934,0,8,4,-4
374.935,0,9,5,-3
374.935,0,8,4,-3
374.936,-1,8,5,-3
374.936,0,7,4,-2
374.937,-1,4,2,-3
374.938,-2,3,2,0
374.938,0,3,4,1
374.939,1,4,4,3
374.939,1,3,2,1
374.94,2,2,2,3
374.94,2,2,3,4
374.941,3,1,2,4
374.942,3,0,1,3
374.942,4,2,0,3
374.943,4,2,0,4
374.943,5,1,0,3
374.944,6,1,0,4
374.945,6,2,0,5
374.945,7,3,2,6
374.946,6,2,2,6
374.946,6,1,1,6
374.947,4,-2,-1,6
374.947,4,-2,-1,6
374.948,5,-1,0,8
374.949,7,0,0,7
374.949,8,2,2,6
374.95,6,2,1,5
374.95,6,3,1,2
374.951,4,4,2,2
374.951,4,6,4,2
374.952,3,5,4,2
374.953,3,7,5,0
374.953,1,7,4,-2
374.954,0,8,5,-4
374.954,-2,7,3,-6
374.955,-3,6,3,-5
374.955,-3,5,3,-5
374.956,-3,5,3,-4
374.957,-1,6,4,-1
374.957,-1,4,5,0
374.958,0,3,2,0
374.958,1,2,0,-2
374.959,2,4,1,0
374.959,3,3,1,1
374.96,4,4,2,3
374.961,5,5,5,7
374.961,7,6,7,9
374.962,7,4,6,7
374.962,3,1,4,6
374.963,1,-2,0,2
374.963,0,-3,-1,1
374.964,1,-2,0,4
374.965,2,0,1,5
374.965,3,-2,-1,1
374.966,3,-1,0,3
374.966,4,0,0,6
374.967,6,-1,-1,6
374.968,7,0,0,7
374.968,10,3,2,8
374.969,9,2,0,6
374.969,10,5,1,5
374.97,8,3,0,2
374.97,7,6,4,4
374.971,7,10,13,9
374.972,6,6,9,6
374.972,2,2,2,0
374.973,0,2,0,-6
374.973,-2,4,0,-7
374.974,-2,4,0,-8
374.974,-4,5,0,-7
374.975,-1,7,3,-4
374.976,0,10,5,-3
374.976,0,9,4,-3
374.977,0,7,3,-3
374.977,-1,4,3,-1
374.978,0,4,4,1
374.978,2,7,9,5
374.979,2,4,7,5
374.98,1,0,2,1
374.98,0,0,0,2
374.981,1,0,0,3
374.981,3,1,1,2
374.982,3,0,0,2
374.982,2,0,-1,2
374.983,4,1,0,4
374.984,6,4,3,7
374.984,8,4,3,7
374.985,7,4,3,5
374.985,6,2,1,5
374.986,5,1,0,5
374.987,4,-1,-1,5
374.987,3,-3,-2,5
374.988,5,-1,-1,6
374.988,6,0,0,7
374.989,7,1,1,8
374.989,8,3,2,7
374.99,7,3,2,4
374.991,7,5,3,3
374.991,5,5,3,2
374.992,3,4,3,0
374.992,2,4,3,-1
374.993,1,6,2,-3
374.993,0,7,3,-4
374.994,0,9,6,-3
374.994,0,9,7,-1
374.995,0,9,8,-2
374.996,-2,6,4,-4
374.996,-3,3,2,-5
374.997,-3,3,2,-3
374.997,-3,1,1,-2
374.998,-2,1,1,0
374.999,0,4,4,2
374.999,2,2,4,4
375,4,3,3,5
375,5,4,4,6
375.001,5,1,0,3
375.001,4,0,-4,0
375.002,3,1,-3,0
375.003,4,4,0,2
375.003,6,5,4,6
375.004,7,5,4,6
375.004,7,4,5,8
375.005,7,4,5,8
375.005,5,1,4,8
375.006,3,-2,-1,3
375.007,1,-6,-5,3
375.007,3,-3,-3,4
375.008,6,0,0,7
375.008,7,0,0,7
375.009,8,1,1,7
375.009,7,4,3,7
375.01,7,4,4,5
375.011,5,5,4,2
375.011,2,2,2,1
375.012,0,3,3,0
375.012,1,5,3,0
375.013,1,7,4,-2
375.013,0,8,6,-2
375.014,0,9,6,-3
375.015,-1,7,4,-4
375.015,-1,7,4,-5
375.016,-3,5,4,-4
375.016,-3,5,4,-3
375.017,-2,5,4,-1
375.017,0,3,3,0
375.018,0,3,3,0
375.019,0,1,1,0
375.019,0,1,0,0
375.02,2,1,-1,1
375.02,3,2,-1,1
375.021,6,5,1,4
375.022,9,6,3,7
375.022,9,6,3,5
375.023,7,4,6,9
375.023,8,6,10,12
375.024,5,0,2,5
375.024,2,-3,-1,2
375.025,1,-3,-2,2
375.026,3,-1,-1,2
375.026,3,0,-1,4
375.027,3,-2,-2,4
375.027,5,-2,-2,6
375.028,7,0,0,7
375.028,6,0,0,6
375.029,8,2,1,6
375.03,8,5,5,8
375.03,8,5,5,6
375.031,6,4,3,2
375.031,4,5,2,0
375.032,1,3,1,0
375.032,2,5,3,-1
375.033,1,7,5,-2
375.034,2,10,6,-2
375.034,0,9,6,-3
375.035,-1,8,4,-5
375.035,-3,6,4,-4
375.036,-2,5,3,-5
375.036,-2,6,2,-4
375.037,-2,3,1,-2
375.038,-1,2,1,-1
375.038,0,2,2,0
375.039,1,4,3,3
375.039,3,4,5,4
375.04,4,5,6,7
375.04,4,2,3,4
375.041,3,0,0,2
375.042,3,0,0,2
375.042,3,0,0,4
375.043,4,2,1,5
375.043,6,3,2,5
375.044,6,2,1,6
375.044,5,1,2,5
375.045,5,1,1,5
375.046,5,1,1,5
375.046,4,0,0,5
375.047,4,-3,-1,6
375.047,6,-3,-5,3
375.048,5,-3,-7,1
375.048,5,-1,-5,2
375.049,8,4,3,7
375.05,10,8,6,9
375.05,11,11,11,10
375.051,9,9,10,8
375.051,4,5,4,1
375.052,0,2,2,-2
375.052,-1,3,2,-3
375.053,-2,5,3,-4
375.054,-2,5,2,-5
375.054,-3,4,1,-7
375.055,-3,5,1,-7
375.055,-1,7,2,-6
375.056,0,8,4,-3
375.056,0,8,6,0
375.057,0,5,4,0
375.058,0,3,4,1
375.058,1,5,4,2
375.059,1,4,4,3
375.059,2,3,3,3
375.06,3,2,4,4
375.06,3,1,1,2
375.061,1,0,-2,1
375.062,2,1,1,4
375.062,5,3,3,6
375.063,6,2,1,5
375.063,5,1,0,5
375.064,6,1,0,5
375.065,5,0,0,3
375.065,4,0,0,4
375.066,5,1,1,6
375.066,5,0,1,7
375.067,5,-1,1,8
375.067,5,-2,-1,5
375.068,5,-1,0,7
375.069,6,1,2,8
375.069,8,3,2,6
375.07,7,1,-1,0
375.07,6,4,-1,0
375.071,4,4,1,0
375.071,3,7,4,2
375.072,4,8,5,2
375.073,4,9,7,0
375.073,2,9,7,-1
375.074,0,9,9,-1
375.074,-2,6,4,-4
375.075,-3,5,2,-6
375.075,-4,5,3,-5
375.076,-4,4,3,-4
375.077,-3,3,2,-3
375.078,-2,3,2,-1
375.078,0,4,3,0
375.079,1,4,3,1
375.079,2,3,3,1
375.079,2,1,2,2
375.08,3,2,2,4
375.081,5,3,3,5
375.081,5,3,2,5
375.082,5,2,1,4
375.082,4,1,1,4
375.083,5,0,0,4
375.083,5,0,0,4
375.084,5,1,0,5
375.085,5,1,1,5
375.085,6,2,1,5
375.086,5,0,0,6
375.086,5,-2,0,8
375.087,7,-1,0,8
375.087,8,0,-1,6
375.088,7,-1,-1,6
375.089,7,0,0,6
375.089,7,2,1,4
375.09,6,5,3,3
375.09,5,6,5,2
375.091,1,5,4,0
375.092,0,5,4,0
375.092,2,7,4,0
375.093,1,8,6,-1
375.093,0,9,7,-2
375.094,0,8,6,-3
375.094,-1,7,5,-3
375.095,-1,6,2,-5
375.096,-1,6,3,-4
375.096,-1,6,3,-3
375.097,-2,3,0,-4
375.097,-2,0,-1,-2
375.098,2,4,1,0
375.098,3,6,4,3
375.099,4,6,6,5
375.1,5,5,4,5
375.1,4,3,3,5
375.101,4,1,2,3
375.101,3,0,0,1
375.102,2,0,0,3
375.102,3,0,1,5
375.103,6,3,3,7
375.104,6,2,2,6
375.104,6,1,1,5
375.105,5,1,2,6
375.105,5,0,0,5
375.106,4,0,0,4
375.106,3,-2,-1,5
375.107,4,-4,-2,4
375.108,5,-1,-1,6
375.108,6,0,-1,7
375.109,8,3,1,6
375.109,9,4,2,6
375.11,8,5,3,2
375.11,5,5,2,1
375.111,4,6,2,1
375.112,4,7,3,1
375.112,4,9,5,0
375.113,4,8,3,-4
375.113,0,8,1,-7
375.114,-1,10,8,-2
375.115,0,11,14,3
375.115,0,6,7,-2
375.116,-5,2,1,-6
375.116,-5,2,2,-4
375.117,-6,0,0,-4
375.117,-4,-1,0,-2
375.118,-1,0,-1,-2
375.119,0,1,0,0
375.119,4,6,5,6
375.12,7,7,6,6
375.12,5,4,2,4
375.121,4,2,3,4
375.121,5,4,4,6
375.122,6,4,5,7
375.123,5,2,3,6
375.123,4,0,0,3
375.124,3,-1,-2,2
375.124,4,0,-1,3
375.125,5,0,0,4
375.125,6,2,1,5
375.126,5,1,1,7
375.127,5,-1,0,7
375.127,6,-1,0,8
375.128,7,0,2,7
375.128,6,-1,0,6
375.129,5,0,1,5
375.129,6,1,0,4
375.13,6,4,0,1
375.131,6,6,1,0
375.131,4,7,4,1
375.132,3,7,4,0
375.132,2,8,5,0
375.133,2,9,5,-2
375.133,0,8,5,-3
375.134,-2,8,7,-3
375.135,-2,7,7,-2
375.135,-3,5,4,-4
375.136,-3,4,2,-4
375.136,-3,3,1,-4
375.137,-3,1,0,-3
375.137,-2,2,2,0
375.138,1,5,4,2
375.139,3,4,4,3
375.139,4,3,3,3
375.14,4,2,0,2
375.14,3,1,1,3
375.141,4,2,0,4
375.141,6,4,2,4
375.142,6,3,1,3
375.143,5,1,1,4
375.143,6,1,0,5
375.144,6,1,0,6
375.144,7,3,2,6
375.145,6,2,2,6
375.145,4,0,0,4
375.146,3,-3,-2,5
375.147,3,-3,-1,6
375.147,6,-1,0,7
375.148,7,0,0,6
375.148,7,0,-1,6
375.149,7,2,1,6
375.15,7,4,3,5
375.15,7,5,3,4
375.151,6,6,3,2
375.151,2,5,3,0
375.152,2,6,4,0
375.152,1,7,4,-2
375.153,1,8,5,-3
375.154,0,8,5,-3
375.154,-1,8,5,-4
375.155,-2,7,5,-4
375.155,-2,6,3,-4
375.156,-2,5,3,-4
375.156,-2,4,2,-3
375.157,-1,3,2,0
375.158,1,3,2,0
375.158,2,3,2,1
375.159,1,3,3,2
375.159,3,4,5,5
375.16,4,3,4,6
375.16,4,1,3,5
375.161,2,0,0,3
375.162,2,0,0,2
375.162,3,0,0,3
375.163,4,1,1,4
375.163,6,1,0,4
375.164,6,2,0,4
375.164,6,3,1,5
375.165,6,3,2,7
375.166,6,2,2,7
375.166,5,-1,0,7
375.167,5,-2,0,7
375.167,6,-1,-1,5
375.168,5,-1,-1,5
375.168,6,1,0,5
375.169,7,3,2,5
375.17,8,6,5,6
375.17,7,6,3,3
375.171,5,5,3,2
375.171,4,5,2,0
375.172,2,7,5,0
375.172,0,7,5,-4
375.173,-2,5,3,-6
375.174,-4,5,3,-7
375.174,-2,8,4,-5
375.175,-2,8,5,-3
375.175,-1,6,3,-5
375.176,0,6,3,-4
375.177,0,6,5,0
375.177,2,5,5,1
375.178,2,4,4,1
375.178,2,3,3,2
375.179,1,2,1,2
375.179,2,2,3,4
375.18,4,4,5,5
375.181,3,2,4,5
375.181,3,0,0,2
375.182,2,0,0,2
375.182,2,0,0,3
375.183,4,0,0,4
375.183,5,2,3,7
375.184,6,3,5,7
375.185,5,1,1,6
375.185,6,1,0,3
375.186,3,-2,-3,3
375.186,3,-5,-5,3
375.187,4,-3,-4,4
375.187,7,0,-4,4
375.188,9,3,0,8
375.189,13,10,12,15
375.189,12,8,9,11
375.19,7,3,3,4
375.19,3,3,2,2
375.191,2,3,2,0
375.191,0,1,0,-4
375.192,-2,3,1,-4
375.193,-1,5,1,-4
375.193,0,7,3,-5
375.194,0,8,2,-6
375.194,0,10,4,-4
375.195,0,9,5,-3
375.195,0,8,6,0
375.196,2,10,9,1
375.197,0,5,4,0
375.197,-1,1,0,-3
375.198,-2,0,0,-1
375.198,0,3,3,2
375.199,2,4,6,6
375.2,4,4,5,5
375.2,3,2,2,3
375.201,2,0,1,3
375.201,3,1,0,3
375.202,4,2,1,4
375.202,5,2,0,5
375.203,4,0,-1,2
375.204,3,0,-1,3
375.204,4,1,1,6
375.205,7,2,3,7
375.205,7,2,1,6
375.206,5,0,-1,6
375.206,5,-1,0,6
375.207,6,0,0,7
375.208,7,0,0,8
375.208,7,0,0,7
375.209,7,2,2,7
375.209,8,4,3,6
375.21,6,5,3,2
375.21,4,5,3,2
375.211,2,4,4,0
375.212,1,4,3,-1
375.212,0,6,4,-1
375.213,0,6,3,-4
375.213,0,7,4,-4
375.214,-1,7,5,-4
375.214,0,8,5,-4
375.215,-1,7,5,-4
375.216,-3,5,3,-3
375.216,-2,4,2,-3
375.217,-2,3,3,0
375.217,0,2,1,0
375.218,1,3,0,-1
375.218,1,4,1,0
375.219,4,4,3,2
375.22,4,4,3,3
375.22,5,5,5,6
375.221,6,5,5,7
375.221,6,4,5,7
375.222,5,3,6,8
375.222,3,-1,1,6
375.223,2,-3,-2,3
375.224,3,-2,-2,2
375.224,2,-1,-2,2
375.225,3,-1,-2,1
375.225,3,-1,0,4
375.226,5,0,0,8
375.227,7,0,0,7
375.227,8,1,0,7
375.228,7,0,0,7
375.228,6,0,1,7
375.229,7,3,2,7
375.229,9,7,5,6
375.23,8,6,3,2
375.231,6,5,3,0
375.231,3,5,4,0
375.232,3,7,5,0
375.232,3,7,4,-2
375.233,0,8,4,-5
375.233,-3,5,1,-7
375.234,-4,4,2,-6
375.235,-2,7,3,-5
375.235,-2,6,3,-4
375.236,0,6,2,-5
375.236,0,6,3,-3
375.237,0,5,3,0
375.237,1,6,6,3
375.238,4,6,8,5
375.239,3,5,6,5
375.239,2,2,3,3
375.24,1,0,1,3
375.24,1,0,0,1
375.241,1,0,0,3
375.241,3,0,0,3
375.242,4,0,1,4
375.243,5,1,1,5
375.243,6,2,1,6
375.244,7,2,1,5
375.244,6,2,0,4
375.245,5,1,0,5
375.245,5,0,0,5
375.246,4,-2,0,7
375.247,5,-2,-2,6
375.247,7,0,0,8
375.248,8,1,2,9
375.248,7,1,1,6
375.249,6,1,0,2
375.249,4,3,1,1
375.25,4,5,3,2
375.251,3,6,2,0
375.251,2,5,0,-2
375.252,2,8,3,-2
375.252,2,9,6,-1
375.253,2,13,11,2
375.253,2,12,12,1
375.254,0,9,7,-3
375.255,-3,5,4,-4
375.255,-4,3,2,-6
375.256,-5,2,2,-5
375.256,-4,0,1,-2
375.257,-2,1,1,0
375.257,0,2,0,-1
375.258,0,1,0,-1
375.259,1,2,1,2
375.259,3,4,4,5
375.26,6,6,5,6
375.26,7,4,4,6
375.261,6,4,5,7
375.261,5,2,3,5
375.262,3,0,0,3
375.263,5,1,0,3
375.263,3,0,0,3
375.264,5,0,0,4
375.264,4,0,0,3
375.265,4,0,1,6
375.266,6,1,1,8
375.266,6,0,0,6
375.267,5,-1,-2,4
375.267,6,-1,-3,4
375.268,6,-1,-1,5
375.268,9,3,2,8
375.269,10,6,4,7
375.27,8,7,4,4
375.27,6,5,4,2
375.271,3,5,3,0
375.271,0,4,3,0
375.272,1,7,5,0
375.272,1,7,4,-2
375.273,0,7,4,-4
375.274,-1,6,3,-5
375.274,-1,7,4,-3
375.275,-1,7,4,-5
375.275,-2,5,3,-4
375.276,-2,5,3,-2
375.276,-2,3,3,-1
375.277,-1,3,3,0
375.278,1,3,4,1
375.278,1,3,3,0
375.279,1,2,2,2
375.279,2,2,2,3
375.28,3,2,3,4
375.28,4,2,4,5
375.281,4,1,2,5
375.282,5,2,2,5
375.282,5,2,1,5
375.283,5,0,0,5
375.283,3,0,0,5
375.284,5,0,0,5
375.284,5,0,-3,1
375.285,5,0,-4,1
375.286,5,0,0,6
375.286,6,0,2,9
375.287,8,1,2,10
375.287,8,1,2,9
375.288,8,1,1,6
375.288,6,2,1,4
375.289,5,2,1,3
375.29,4,3,1,2
375.29,5,5,2,1
375.291,4,6,3,0
375.291,2,5,0,-3
375.292,0,7,4,-1
375.293,2,10,7,0
375.293,1,11,10,1
375.294,0,8,7,-2
375.294,-1,6,2,-7
375.295,-6,2,0,-8
375.295,-5,2,1,-5
375.296,-3,4,3,-2
375.297,-1,4,3,0
375.297,1,5,3,0
375.298,1,4,5,2
375.298,2,4,6,5
375.299,2,2,4,4
375.299,2,1,4,5
375.3,3,2,3,4
375.301,2,1,1,2
375.301,2,-1,-1,1
375.302,1,-1,0,3
375.302,3,0,1,5
375.303,7,3,1,6
375.303,7,2,0,4
375.304,6,1,0,4
375.305,6,2,1,5
375.305,6,2,1,6
375.306,6,0,0,6
375.306,6,-1,0,6
375.307,6,0,0,7
375.308,6,0,0,7
375.308,7,1,1,7
375.309,8,3,3,6
375.309,6,3,2,4
375.31,5,4,3,2
375.31,2,4,2,0
375.311,2,3,0,-1
375.311,2,7,4,-1
375.312,2,8,4,-2
375.313,0,7,2,-5
375.313,0,9,4,-4
375.314,0,9,5,-3
375.314,0,8,5,-4
375.315,-1,7,6,-2
375.315,0,7,7,0
375.316,-1,3,4,-1
375.317,-2,0,0,-4
375.317,-2,1,0,-2
375.318,0,3,1,0
375.318,1,3,2,3
375.319,4,3,3,4
375.32,5,4,2,4
375.32,5,3,3,4
375.321,4,2,2,5
375.321,3,2,3,6
375.322,4,1,1,5
375.322,4,0,1,5
375.323,4,1,0,4
375.324,5,1,0,5
375.324,5,0,0,4
375.325,5,1,0,5
375.325,6,1,0,5
375.326,4,-2,-1,6
375.326,5,-2,-1,6
375.327,7,0,0,6
375.328,5,-1,0,7
375.328,7,3,4,10
375.329,10,6,6,10
375.329,9,5,4,5
375.33,5,3,1,0
375.33,2,1,-1,-3
375.331,0,0,-3,-6
375.332,0,6,2,-3
375.332,2,11,8,-1
375.333,3,12,8,-2
375.333,0,10,6,-4
375.334,-1,8,5,-5
375.334,-2,7,4,-5
375.335,-3,6,4,-4
375.336,-2,5,3,-2
375.336,-1,4,4,0
375.337,0,3,3,0
375.337,1,3,2,1
375.338,1,3,2,1
375.338,1,1,2,2
375.339,2,3,3,4
375.34,3,1,1,3
375.34,4,2,1,3
375.341,3,1,1,4
375.341,4,2,2,5
375.342,6,2,2,6
375.343,5,1,0,4
375.343,5,1,0,3
375.344,4,0,0,4
375.344,4,1,0,5
375.345,6,2,1,5
375.345,5,0,0,5
375.346,5,-2,-1,6
375.347,5,-2,-1,6
375.347,6,0,0,7
375.348,6,0,0,7
375.348,8,3,2,8
375.349,9,5,3,5
375.349,6,5,3,3
375.35,4,4,3,1
375.351,3,4,3,0
375.351,2,5,3,0
375.352,1,6,5,0
375.352,1,8,6,-2
375.353,0,9,5,-3
375.353,-2,6,3,-5
375.354,-2,6,3,-4
375.355,-2,5,2,-5
375.355,-3,5,1,-5
375.356,-1,4,1,-4
375.356,0,4,1,-2
375.357,1,6,3,0
375.357,3,6,4,2
375.358,3,5,5,4
375.359,4,6,7,6
375.359,4,3,4,4
375.36,2,0,0,1
375.36,1,-1,-1,1
375.361,1,0,0,2
375.361,3,1,0,2
375.362,5,1,-1,2
375.363,6,1,-2,2
375.363,7,3,0,4
375.364,8,6,5,9
375.364,8,7,12,13
375.365,7,3,7,10
375.365,4,-3,-1,4
375.366,1,-7,-5,2
375.367,2,-3,-1,6
375.367,4,-1,0,8
375.368,5,-1,0,7
375.368,7,2,3,7
375.369,7,3,3,4
375.369,6,4,2,1
375.37,2,2,0,-1
375.371,1,2,0,-1
375.371,3,6,4,0
375.372,5,11,8,1
375.372,4,10,7,-2
375.373,0,9,6,-3
375.374,-1,8,5,-4
375.374,-1,8,5,-4
375.375,-2,6,3,-5
375.375,-2,4,2,-5
375.376,-3,2,0,-6
375.376,-3,2,1,-1
375.377,0,5,5,3
375.378,3,6,6,4
375.378,3,3,3,2
375.379,2,2,1,1
375.379,2,1,1,2
375.38,4,2,1,4
375.38,6,3,1,2
375.381,5,2,0,4
375.382,5,3,3,7
375.382,7,4,4,7
375.383,6,2,1,5
375.383,4,0,0,3
375.384,3,0,1,5
375.384,4,0,1,5
375.385,3,0,0,5
375.386,3,-3,0,6
375.386,5,-2,-1,6
375.387,5,-1,0,5
375.387,5,-1,-1,6
375.388,6,0,0,5
375.388,8,3,0,4
375.389,7,6,2,3
375.39,8,8,5,4
375.39,6,7,4,3
375.391,5,7,5,2
375.391,4,8,5,0
375.392,2,6,2,-3
375.392,0,5,2,-5
375.393,-1,6,3,-4
375.394,-2,6,3,-4
375.394,-1,7,6,-2
375.395,-1,8,6,-1
375.395,-1,6,5,-2
375.396,-1,4,4,-1
375.396,-1,2,1,-1
375.397,-1,2,1,0
375.398,0,3,2,0
375.398,1,2,2,1
375.399,2,2,2,2
375.399,3,2,3,4
375.4,4,3,3,4
375.4,4,2,2,6
375.401,5,2,3,5
375.402,5,1,2,5
375.402,5,1,2,5
375.403,4,0,0,5
375.403,6,0,0,6
375.404,7,1,0,5
375.405,7,1,0,5
375.405,5,-1,-2,3
375.406,3,-3,-4,3
375.406,4,0,0,6
375.407,6,1,3,7
375.407,6,1,3,7
375.408,7,2,4,7
375.409,5,1,1,4
375.409,4,4,2,1
375.41,3,6,5,3
375.41,4,5,4,3
375.411,2,5,3,0
375.411,2,6,3,-1
375.412,1,7,3,-3
375.413,0,7,3,-4
375.413,0,8,5,-4
375.414,0,9,6,-2
375.414,0,8,4,-4
375.415,-1,6,3,-3
375.415,-2,6,3,-2
375.416,-2,3,1,-2
375.417,-1,2,2,0
375.417,0,2,2,0
375.418,1,3,3,1
375.418,2,2,3,2
375.419,3,3,3,4
375.419,4,3,3,5
375.42,5,2,1,4
375.421,5,2,0,4
375.421,5,2,0,3
375.422,5,2,2,5
375.422,5,2,2,5
375.423,5,2,2,7
375.423,6,3,4,8
375.424,5,0,2,6
375.425,2,-1,0,3
375.425,1,-3,-1,4
375.426,3,-4,-4,4
