Program Time [s],data 0,data 1,data 2,data 3
410.97,4,0,2,8
410.97,3,-3,0,6
410.971,4,-3,-1,5
410.971,3,-2,-2,5
410.972,3,-1,-1,4
410.972,5,1,0,5
410.973,6,2,1,4
410.974,7,5,3,3
410.974,5,4,3,3
410.975,4,6,4,1
410.975,2,6,4,0
410.976,2,6,3,-1
410.977,1,7,4,-2
410.977,1,8,4,-3
410.978,0,6,4,-3
410.978,0,7,4,-3
410.979,-1,6,3,-3
410.979,0,6,4,-2
410.98,-1,3,3,-1
410.98,-1,3,2,0
410.981,0,3,2,0
410.982,1,3,2,1
410.982,1,3,2,1
410.983,3,2,2,2
410.983,2,1,1,2
410.984,3,2,2,5
410.984,5,4,3,6
410.985,6,3,2,5
410.986,5,3,1,3
410.986,5,3,2,4
410.987,4,1,0,3
410.987,4,1,0,3
410.988,4,1,1,4
410.988,4,2,2,5
410.989,5,1,2,4
410.99,2,-2,0,4
410.99,3,-2,0,5
410.991,5,0,1,7
410.991,5,0,0,7
410.992,6,0,0,5
410.992,6,1,0,3
410.993,6,2,0,2
410.994,5,4,1,3
410.994,5,6,4,4
410.995,6,6,5,3
410.995,4,7,6,2
410.996,4,8,5,0
410.997,1,7,3,-3
410.997,0,7,4,-3
410.998,-1,5,0,-6
410.998,-1,5,1,-6
410.999,-2,6,3,-3
410.999,0,7,6,-1
411,0,5,4,0
411.001,0,5,6,1
411.001,1,4,4,1
411.002,1,3,3,1
411.002,0,2,2,0
411.003,0,0,0,1
411.003,0,0,1,2
411.004,3,2,3,4
411.005,4,3,3,4
411.005,4,2,3,5
411.006,4,1,1,4
411.006,5,2,0,3
411.007,5,1,0,3
411.007,4,0,-3,0
411.008,5,1,-1,2
411.009,6,4,1,4
411.009,7,3,2,6
411.01,6,0,0,7
411.01,6,0,1,7
411.011,7,1,1,6
411.012,5,0,0,6
411.012,6,1,1,6
411.013,7,2,1,5
411.013,6,3,2,4
411.014,4,2,2,2
411.014,3,4,3,2
411.015,3,4,4,2
411.016,3,6,5,1
411.016,2,7,4,-2
411.017,0,6,3,-4
411.017,0,5,3,-4
411.018,-1,5,3,-4
411.018,-1,5,2,-4
411.019,-1,5,4,-2
411.02,0,5,5,-1
411.02,-1,3,3,0
411.021,0,3,3,0
411.021,0,2,3,0
411.022,0,2,4,2
411.022,1,3,2,2
411.023,2,3,1,2
411.024,3,3,3,3
411.024,3,3,2,2
411.025,4,3,3,4
411.025,5,3,3,6
411.026,7,4,3,6
411.026,6,4,2,3
411.027,5,2,0,2
411.028,4,1,0,2
411.028,4,1,0,2
411.029,4,1,0,3
411.029,4,0,0,5
411.03,3,0,0,8
411.03,6,0,0,7
411.031,5,0,0,6
411.032,5,-2,-1,6
411.032,7,0,0,5
411.033,6,2,1,6
411.033,7,5,5,6
411.034,6,6,5,4
411.034,5,6,5,3
411.035,3,6,4,1
411.036,3,8,5,0
411.036,1,6,3,-3
411.037,0,7,3,-5
411.037,-3,5,1,-6
411.038,-3,3,0,-7
411.039,-4,3,0,-7
411.039,-3,4,2,-3
411.04,0,7,5,0
411.04,2,7,6,2
411.041,3,7,6,3
411.041,2,4,6,4
411.042,2,1,3,3
411.043,1,0,2,3
411.043,2,0,1,3
411.044,3,2,2,4
411.044,4,1,0,1
411.045,1,0,-2,0
411.045,1,0,-1,0
411.046,3,2,0,3
411.047,6,4,2,4
411.047,7,4,2,4
411.048,7,5,2,4
411.048,7,4,2,5
411.049,7,3,1,5
411.049,6,0,0,5
411.05,4,0,1,9
411.051,6,0,3,10
411.051,6,0,1,7
411.052,5,-1,0,5
411.052,5,0,-1,2
411.053,4,2,1,3
411.053,5,5,4,4
411.054,5,5,4,3
411.055,3,5,5,3
411.055,2,4,4,0
411.056,1,4,2,-3
411.056,-1,5,2,-2
411.057,0,7,4,-3
411.057,0,6,3,-3
411.058,0,8,5,-3
411.059,0,7,4,-4
411.059,-2,5,1,-4
411.06,-2,4,1,-2
411.06,0,3,2,0
411.061,1,3,2,0
411.061,2,3,2,0
411.062,2,3,3,2
411.063,4,5,4,4
411.063,4,4,3,4
411.064,4,4,4,5
411.064,4,3,3,5
411.065,5,3,4,5
411.065,3,2,3,5
411.066,3,0,1,4
411.067,2,-1,0,2
411.067,2,0,-1,2
411.068,2,0,0,3
411.068,4,0,0,4
411.069,5,1,1,5
411.069,5,0,0,5
411.07,5,0,0,6
411.071,7,0,0,7
411.071,7,0,0,6
411.072,7,3,2,7
411.072,8,3,2,6
411.073,7,4,3,4
411.073,6,5,4,2
411.074,4,5,2,1
411.075,3,4,2,0
411.075,3,6,3,0
411.076,2,7,4,-1
411.076,0,6,3,-3
411.077,0,5,4,-3
411.078,-2,5,4,-2
411.078,-1,6,5,-2
411.079,-1,5,4,-2
411.079,0,5,4,-1
411.08,-1,4,4,0
411.08,-1,2,3,1
411.081,0,2,3,0
411.082,0,1,2,1
411.082,2,2,2,2
411.083,2,2,1,2
411.083,2,2,1,3
411.084,4,2,2,3
411.084,4,2,2,4
411.085,5,2,2,4
411.086,4,2,1,3
411.086,4,1,0,2
411.087,5,2,1,4
411.087,7,3,1,4
411.088,5,1,0,2
411.088,5,2,0,3
411.089,6,2,0,4
411.09,4,0,0,5
411.09,6,0,0,6
411.091,7,2,2,7
411.091,6,1,1,7
411.092,7,1,1,6
411.092,5,2,1,4
411.093,6,3,3,4
411.094,5,4,3,2
411.094,3,3,2,1
411.095,1,2,2,0
411.095,2,5,3,0
411.096,1,7,5,-1
411.096,1,8,6,-1
411.097,0,8,6,-2
411.098,0,7,4,-4
411.098,-2,5,2,-4
411.099,-2,4,2,-4
411.099,-2,4,2,-3
411.1,-2,3,2,0
411.1,0,5,3,1
411.101,2,5,6,3
411.102,1,3,6,5
411.102,2,2,4,4
411.103,2,2,5,5
411.103,3,1,2,3
411.104,1,0,0,2
411.105,1,0,-1,1
411.105,3,1,0,2
411.106,5,2,0,3
411.106,5,2,0,3
411.107,5,1,0,2
411.107,5,2,0,3
411.108,6,3,1,5
411.109,7,4,2,6
411.109,6,2,1,7
411.11,6,0,0,6
411.11,5,-1,0,6
411.111,5,-1,0,6
411.111,6,0,0,7
411.112,7,2,2,6
411.113,7,3,2,4
411.113,6,4,3,2
411.114,4,6,5,2
411.114,3,6,5,1
411.115,1,4,3,0
411.115,1,4,3,-1
411.116,0,4,1,-3
411.117,0,5,1,-5
411.117,0,5,1,-5
411.118,0,7,3,-3
411.118,0,7,1,-4
411.119,0,7,4,-2
411.12,0,7,5,0
411.12,0,5,6,2
411.121,1,3,3,0
411.121,2,4,2,0
411.122,1,2,3,1
411.122,2,3,3,2
411.123,1,2,4,3
411.124,2,4,9,9
411.124,4,3,6,8
411.125,4,1,2,3
411.125,2,-1,-2,0
411.126,1,-1,-2,0
411.126,2,0,-2,2
411.127,5,2,0,2
411.128,5,2,1,4
411.128,7,4,3,7
411.129,8,3,3,9
411.129,7,0,2,8
411.13,6,-1,0,8
411.13,5,-1,1,8
411.131,4,-2,-1,4
411.132,2,-4,-4,0
411.132,2,-1,-2,1
411.133,3,2,0,2
411.133,6,7,3,2
411.134,6,9,5,3
411.134,5,8,5,2
411.135,5,9,6,1
411.136,4,9,5,0
411.136,3,9,7,0
411.137,1,9,7,-1
411.137,-1,6,4,-3
411.138,0,6,3,-4
411.138,-3,3,2,-4
411.139,-3,2,1,-3
411.14,-2,2,1,-2
411.14,-1,2,2,0
411.141,0,3,3,1
411.141,1,3,3,1
411.142,2,2,3,2
411.142,2,3,3,3
411.143,3,3,3,4
411.144,4,3,2,3
411.144,3,2,1,3
411.145,3,2,2,4
411.145,4,1,2,4
411.146,5,2,0,3
411.146,4,0,0,3
411.147,5,2,0,3
411.148,6,3,0,4
411.148,6,3,0,3
411.149,5,1,0,3
411.149,4,-1,-1,5
411.15,6,0,2,8
411.15,7,1,1,7
411.151,5,0,1,7
411.152,6,2,3,7
411.152,6,2,2,6
411.153,5,1,1,3
411.153,3,3,2,2
411.154,3,4,3,1
411.155,2,2,1,0
411.155,2,4,2,0
411.156,2,6,4,-1
411.156,1,8,5,-2
411.157,0,9,6,-2
411.157,-1,8,7,-1
411.158,0,6,6,-2
411.159,-2,4,3,-3
411.159,-3,2,1,-4
411.16,-4,0,0,-4
411.16,-1,1,-1,-2
411.161,0,2,0,0
411.161,4,5,2,1
411.162,4,6,4,5
411.163,7,7,6,6
411.163,7,7,6,7
411.164,7,6,5,5
411.164,4,2,2,3
411.165,2,1,1,2
411.165,2,0,0,2
411.166,2,0,-1,1
411.167,3,-1,-2,1
411.167,4,1,0,3
411.168,5,2,1,5
411.168,6,2,1,5
411.169,6,2,0,5
411.169,6,0,0,5
411.17,5,-1,-1,5
411.171,6,0,0,6
411.171,6,0,1,8
411.172,8,2,2,8
411.172,8,3,3,6
411.174,6,3,2,3
411.174,4,3,2,1
411.174,2,4,1,0
411.175,2,4,2,0
411.175,2,5,3,-1
411.176,1,6,5,-2
411.176,1,8,5,-2
411.177,0,7,4,-4
411.177,0,8,5,-4
411.178,-1,7,5,-3
411.179,-1,6,3,-3
411.179,-2,4,2,-3
411.18,-2,3,2,-1
411.18,0,4,4,1
411.181,2,4,3,2
411.181,3,4,4,3
411.182,3,3,4,4
411.183,3,3,5,5
411.183,3,2,3,4
411.184,2,0,0,2
411.184,1,-1,-2,0
411.185,1,0,0,2
411.186,4,1,0,3
411.186,5,2,1,4
411.187,6,3,1,6
411.187,7,5,3,6
411.188,7,5,5,6
411.188,6,3,3,4
411.189,1,0,1,6
411.19,2,-2,-1,5
411.19,3,-2,-1,4
411.191,5,-1,0,4
411.191,5,0,0,5
411.192,7,1,0,4
411.192,7,3,2,5
411.193,7,6,4,4
411.194,6,6,4,3
411.194,3,4,2,1
411.195,3,5,4,1
411.195,3,8,8,2
411.196,2,6,4,-2
411.196,0,6,2,-4
411.197,-1,4,1,-5
411.198,-1,7,3,-4
411.198,-2,6,4,-3
411.199,-2,6,5,0
411.199,0,6,5,0
411.2,0,3,2,-1
411.2,0,1,0,-1
411.201,0,2,1,0
411.202,2,3,3,3
411.202,3,4,3,3
411.203,4,4,5,5
411.203,4,2,3,3
411.204,1,0,1,2
411.204,1,0,1,4
411.205,3,1,2,5
411.206,6,4,4,6
411.206,7,2,1,5
411.207,6,2,1,5
411.207,5,1,0,5
411.208,6,1,0,4
411.208,4,0,0,4
411.209,4,-1,-1,3
411.21,2,-2,-2,3
411.21,3,-1,-1,3
411.211,4,-1,-2,3
411.211,5,0,-3,1
411.212,6,3,0,2
411.213,8,7,3,4
411.213,10,11,7,7
411.214,9,10,8,6
411.214,7,9,9,5
411.215,5,8,8,4
411.215,2,6,5,-1
411.216,-1,4,3,-3
411.216,-2,3,1,-6
411.217,-4,2,0,-6
411.218,-2,5,2,-5
411.218,-2,4,1,-4
411.219,-2,5,3,-2
411.219,0,4,3,0
411.22,0,4,4,1
411.22,1,3,1,0
411.221,1,3,1,0
411.222,1,2,2,2
411.222,3,3,2,4
411.223,4,3,3,4
411.223,4,3,3,5
411.224,5,3,2,4
411.224,4,1,0,3
411.225,4,1,0,3
411.226,5,2,0,3
411.226,5,2,1,4
411.227,5,1,0,5
411.227,5,2,1,3
411.228,5,2,0,3
411.229,4,1,0,4
411.229,2,-1,-1,5
411.23,5,-1,0,5
411.23,6,0,0,7
411.231,5,0,0,7
411.231,7,2,1,6
411.232,7,4,2,6
411.233,7,5,4,5
411.233,5,5,5,4
411.234,4,4,3,1
411.234,1,3,1,0
411.235,1,6,5,0
411.236,1,5,2,-3
411.236,0,5,2,-4
411.237,-1,5,2,-3
411.237,0,6,5,-2
411.238,0,7,5,-2
411.238,-1,6,4,-2
411.239,-1,5,4,-2
411.24,-1,3,2,-2
411.24,-1,2,2,0
411.241,1,3,3,1
411.241,1,4,3,2
411.242,3,4,2,2
411.242,5,4,3,3
411.243,5,5,3,3
411.244,5,5,3,2
411.244,2,1,1,2
411.245,3,1,0,3
411.245,3,1,1,3
411.246,4,1,1,4
411.246,4,1,0,4
411.247,3,1,0,3
411.248,4,0,0,3
411.248,5,1,1,4
411.249,5,0,0,4
411.249,4,-2,-1,5
411.25,5,0,0,7
411.25,8,1,1,7
411.251,7,1,0,6
411.251,7,3,1,5
411.252,6,3,1,4
411.253,6,5,3,3
411.253,7,7,5,4
411.254,6,7,5,2
411.254,3,4,3,0
411.255,1,5,3,-1
411.256,0,6,5,-1
411.256,0,7,5,-1
411.257,-1,7,8,0
411.257,-1,7,7,-1
411.258,-4,2,2,-5
411.258,-5,0,0,-6
411.259,-4,2,0,-4
411.26,-2,1,0,-2
411.26,0,2,1,0
411.261,1,4,2,2
411.261,4,6,4,3
411.262,5,4,1,2
411.262,4,3,2,3
411.263,5,4,3,5
411.264,6,5,4,6
411.264,7,5,4,5
411.265,5,2,1,3
411.265,3,2,3,4
411.266,3,1,4,5
411.266,3,0,2,5
411.267,2,0,-2,2
411.268,2,-1,-3,0
411.268,2,0,-2,1
411.269,2,-1,-2,3
411.269,4,0,0,7
411.27,9,2,3,8
411.271,9,3,2,8
411.271,8,2,2,7
411.272,7,3,4,7
411.272,4,1,2,5
411.273,4,2,1,3
411.273,3,2,0,1
411.274,3,3,2,1
411.275,3,5,3,0
411.275,2,6,5,0
411.276,3,9,6,0
411.276,1,8,5,-1
411.277,0,6,2,-4
411.277,-1,5,2,-4
411.278,-2,5,4,-2
411.279,-1,6,5,-2
411.279,0,8,7,0
411.28,-1,2,1,-2
411.28,-2,0,0,-2
411.281,-1,1,1,0
411.281,0,3,3,1
411.282,3,3,3,3
411.283,4,4,5,6
411.283,5,5,8,9
411.284,6,3,5,6
411.284,4,0,2,4
411.285,2,-1,-1,2
411.285,2,0,-1,1
411.286,2,0,-3,0
411.287,2,0,-2,0
411.287,4,2,-2,0
411.288,6,6,2,4
411.288,8,5,2,5
411.289,6,2,2,7
411.289,6,0,0,6
411.29,5,0,0,6
411.291,8,0,0,7
411.291,8,3,2,8
411.292,9,4,3,6
411.292,8,5,2,5
411.293,6,4,1,3
411.294,5,5,2,2
411.294,4,5,2,1
411.295,2,4,3,0
411.295,2,5,2,-2
411.296,0,6,3,-3
411.296,-1,7,5,-2
411.297,-2,5,5,-2
411.298,-2,5,4,-3
411.298,-2,4,3,-3
411.299,-2,5,3,-1
411.299,-1,3,3,-1
411.3,-1,1,1,0
411.3,0,3,2,1
411.301,3,5,4,2
411.301,2,2,2,3
411.302,3,2,2,3
411.303,3,2,1,2
411.303,4,2,0,2
411.304,4,2,1,2
411.304,3,2,2,5
411.305,5,2,1,3
411.305,3,2,0,3
411.306,6,4,2,4
411.307,6,5,4,4
411.307,5,3,2,3
411.308,4,2,1,4
411.308,4,0,0,3
411.309,3,-1,0,4
411.31,4,-1,0,7
411.31,6,1,2,7
411.311,7,0,2,8
411.311,8,2,2,8
411.312,6,2,2,4
411.312,5,2,2,3
411.313,5,3,2,1
411.314,3,3,2,1
411.314,2,4,1,0
411.315,2,6,3,-1
411.315,1,6,3,-2
411.316,1,7,4,-2
411.316,0,8,5,-2
411.317,0,9,8,0
411.318,-1,6,5,-2
411.318,-2,3,1,-5
411.319,-3,3,1,-4
411.319,-2,3,2,-1
411.32,0,1,1,0
411.32,1,3,3,2
411.321,3,5,5,4
411.322,4,4,4,4
411.322,3,4,4,3
411.323,3,4,7,6
411.323,3,3,6,7
411.324,3,0,2,3
411.324,2,-1,0,1
411.325,2,0,0,1
411.326,2,0,-1,2
411.326,3,1,0,3
411.327,4,1,2,6
411.327,7,2,2,6
411.328,7,4,3,6
411.329,5,0,0,3
411.329,2,-3,-4,2
411.33,4,-2,-3,4
411.33,8,1,0,6
411.331,8,2,0,6
411.331,10,4,2,7
411.332,10,6,2,5
411.332,8,7,5,4
411.333,6,6,4,3
411.334,5,5,4,2
411.334,2,5,6,2
411.335,1,4,4,0
411.335,0,4,2,-3
411.336,-1,5,3,-4
411.336,-2,5,2,-5
411.337,-2,5,4,-4
411.338,-3,5,5,-2
411.338,-1,5,5,-1
411.339,0,5,4,-1
411.339,-2,2,1,-1
411.34,0,1,1,0
411.341,0,3,1,0
411.341,1,3,1,1
411.342,3,4,2,3
411.342,4,4,2,3
411.343,5,4,3,4
411.343,5,3,2,4
411.344,5,3,2,4
411.345,5,3,2,4
411.345,4,1,1,4
411.346,5,2,0,3
411.346,5,2,0,3
411.347,4,1,0,3
411.347,5,2,1,3
411.348,4,1,0,3
411.349,3,0,0,5
411.349,4,0,0,5
411.35,5,0,0,7
411.35,6,0,2,7
411.351,6,1,2,7
411.351,7,2,1,5
411.352,5,2,1,3
411.353,4,3,1,2
411.353,4,2,0,0
411.354,3,4,2,0
411.354,3,6,4,1
411.355,4,9,5,0
411.355,3,8,5,-2
411.356,0,7,4,-3
411.357,-1,6,3,-4
411.357,-1,7,4,-4
411.358,-1,6,3,-2
411.358,-1,4,3,-2
411.359,0,4,2,0
411.359,0,2,2,0
411.36,1,3,2,1
411.361,1,2,3,1
411.361,1,2,4,2
411.362,2,3,4,4
411.362,2,1,1,0
411.363,1,-1,-4,-2
411.363,1,0,-2,0
411.364,4,5,3,5
411.365,7,6,6,7
411.365,7,5,5,8
411.366,8,4,4,7
411.366,7,3,2,5
411.367,4,1,0,3
411.367,4,1,1,3
411.368,2,0,0,4
411.369,3,-1,0,6
411.369,6,0,1,7
411.37,5,0,0,5
411.37,4,-2,0,4
411.371,4,0,1,6
411.372,5,2,3,7
411.372,7,4,3,3
411.373,4,2,0,0
411.373,2,3,1,1
411.374,3,4,2,0
411.374,4,6,2,-1
411.375,2,7,1,-2
411.376,2,8,3,-3
411.376,2,10,5,-1
411.377,3,11,7,0
411.377,1,9,7,0
411.378,0,6,3,-3
411.378,-2,3,2,-4
411.379,-3,1,1,-2
411.38,-1,2,2,0
411.38,0,3,4,2
411.381,1,4,4,2
411.381,0,1,1,1
411.382,0,1,2,2
411.382,2,1,2,3
411.383,3,2,0,2
411.384,4,3,0,3
411.384,6,3,1,4
411.385,6,4,2,6
411.385,6,3,2,4
411.386,6,3,2,6
411.387,7,4,4,5
411.387,5,1,1,4
411.388,5,1,0,3
411.388,3,0,0,2
411.389,1,-3,-2,3
411.389,3,-2,-1,5
411.39,5,0,3,8
411.391,6,0,2,7
411.391,6,1,1,6
411.392,5,2,2,6
411.392,6,3,3,5
411.393,6,5,2,2
411.393,4,3,1,0
411.394,2,4,0,-1
411.395,3,6,4,0
411.395,3,7,3,-1
411.396,1,8,3,-4
411.396,0,7,4,-2
411.397,1,10,9,0
411.397,1,8,7,-1
411.398,-1,5,3,-3
411.399,-1,4,3,-3
411.399,-2,1,1,-2
411.4,-2,1,1,-1
411.4,-1,1,1,0
411.401,0,1,2,0
411.401,1,3,3,3
411.402,3,4,5,5
411.403,5,4,4,5
411.403,5,3,3,5
411.404,5,4,3,4
411.404,5,2,1,4
411.405,5,3,2,4
411.405,4,0,0,3
411.406,4,0,0,2
411.407,4,1,1,4
411.407,5,1,0,3
411.408,5,2,0,3
411.408,5,2,0,4
411.409,4,0,0,6
411.409,5,0,0,7
411.41,6,1,2,8
411.411,6,1,1,7
411.411,7,1,0,4
411.412,5,0,0,2
411.412,4,2,0,2
411.413,4,4,2,1
411.413,4,5,3,2
411.414,4,7,4,1
411.415,4,9,6,1
411.415,3,9,5,0
411.416,1,9,7,-1
411.416,0,8,8,0
411.417,-1,5,4,-3
411.417,-4,1,1,-5
411.418,-5,2,1,-5
411.419,-3,2,3,-2
411.419,-3,2,3,0
411.42,0,3,4,1
411.42,1,2,3,1
411.421,2,3,3,2
411.421,3,3,2,3
411.422,3,1,0,2
411.423,3,2,0,1
411.423,5,4,1,3
411.424,5,3,2,3
411.424,6,4,1,4
411.425,7,5,4,5
411.426,8,4,1,4
411.426,7,3,0,3
411.427,6,3,1,3
411.427,5,2,0,2
411.428,3,1,1,4
411.428,3,0,2,7
411.429,4,0,3,8
411.43,4,-2,-1,4
411.43,2,-4,-3,3
411.431,3,-2,-2,4
411.431,6,3,3,7
411.432,7,4,5,7
411.432,6,4,3,3
411.433,4,5,2,2
411.434,3,5,3,1
411.434,3,5,3,0
411.435,2,6,3,-1
411.435,2,8,5,-1
411.436,1,8,5,-2
411.436,-1,6,3,-4
411.437,-2,5,3,-4
411.438,-2,5,3,-3
411.438,-1,3,2,-4
411.439,-1,3,1,-2
411.439,0,3,1,0
411.44,2,4,2,2
411.441,4,6,6,5
411.441,5,7,7,8
411.442,6,3,3,4
411.442,3,1,1,2
411.443,2,0,0,0
411.443,1,-1,-2,0
411.444,0,0,-2,0
411.445,3,3,2,2
411.445,5,6,3,2
411.446,5,5,3,3
411.446,3,2,2,4
411.447,4,2,2,4
411.447,5,3,3,6
411.448,5,1,2,6
411.448,5,-1,0,6
411.449,5,-2,-2,5
411.45,6,0,0,5
411.45,7,0,0,7
411.451,8,3,2,7
411.451,8,3,1,5
411.452,7,3,1,3
411.453,6,5,4,3
411.453,5,6,5,2
411.454,3,5,2,0
411.454,0,4,1,-3
411.455,0,3,2,-3
411.455,0,6,3,-2
411.456,0,6,3,-3
411.457,0,7,5,-1
411.457,1,8,5,-1
411.458,0,6,4,-2
411.458,0,5,3,-3
411.459,-2,2,1,-2
411.459,-1,0,0,-1
411.46,1,3,3,1
411.461,3,5,5,3
411.461,3,4,3,3
411.462,2,3,3,4
411.462,3,2,3,5
411.463,4,2,3,5
411.463,4,2,2,3
411.464,3,1,1,3
411.465,2,0,0,4
411.465,3,0,0,4
411.466,4,1,0,4
411.466,5,3,2,4
411.467,5,3,1,4
411.468,5,3,2,5
411.468,5,0,0,5
411.469,4,-1,-1,4
411.469,5,0,0,5
411.47,6,0,0,5
411.47,5,0,0,5
411.471,6,1,0,4
411.471,7,2,0,3
411.472,7,4,1,3
411.473,7,7,5,4
411.473,6,8,7,5
411.474,4,6,6,2
411.474,3,7,5,0
411.475,0,5,3,-3
411.475,-1,4,1,-5
411.476,-2,4,2,-4
411.477,0,7,4,-3
411.477,0,7,5,-2
411.478,0,5,3,-3
411.478,-2,3,1,-3
411.479,-3,1,1,-1
411.48,0,3,3,1
411.48,3,5,5,3
411.481,3,5,4,3
411.481,3,3,3,3
411.482,3,2,2,2
411.482,2,1,2,4
411.483,3,2,4,5
411.484,4,2,3,5
411.484,4,2,1,3
411.485,3,0,-1,0
411.485,1,0,-2,0
411.486,3,2,0,2
411.486,5,3,2,4
411.487,6,4,2,5
411.488,7,4,2,6
411.488,7,2,1,6
411.489,5,0,-1,4
411.489,5,-1,-1,4
411.49,5,0,0,7
411.49,7,1,1,7
411.491,7,2,1,6
411.492,6,3,3,4
411.492,5,3,4,4
411.493,4,4,4,2
411.493,3,4,2,1
411.494,1,2,2,0
411.495,1,4,3,0
411.495,1,6,4,-1
411.496,0,8,6,-2
411.496,0,6,2,-4
411.497,-1,6,4,-4
411.497,-2,5,4,-2
411.498,-1,3,1,-3
411.498,-1,3,3,-1
411.499,0,4,3,1
411.5,1,4,3,2
411.5,2,4,4,1
411.501,1,2,2,2
411.501,2,2,4,3
411.502,3,2,2,4
411.502,4,2,3,4
411.503,4,2,2,4
411.504,4,1,0,2
411.504,2,0,-1,1
411.505,4,0,-1,2
411.505,5,2,1,5
411.506,7,4,2,6
411.506,7,5,3,5
411.507,6,3,2,5
411.508,6,3,1,5
411.508,4,0,0,4
411.509,4,-2,-1,4
411.509,5,0,0,5
411.51,5,0,0,7
411.511,7,3,4,9
411.511,8,3,2,5
411.512,5,1,0,1
411.512,3,3,1,2
411.513,3,5,3,2
411.513,3,5,4,2
411.514,3,6,4,0
411.515,2,6,4,0
411.515,0,7,4,-2
411.516,0,6,4,-3
411.516,-2,5,3,-2
411.517,-1,5,3,-3
411.517,-1,6,3,-2
411.518,0,5,3,-2
411.519,0,4,3,-1
411.519,0,3,3,1
411.52,2,4,4,2
411.52,1,2,2,2
411.521,1,2,1,2
411.521,2,0,0,0
411.522,2,2,1,0
411.523,3,2,1,2
411.523,3,3,3,3
411.524,5,5,5,6
411.524,5,5,5,5
411.525,4,4,5,5
411.525,4,2,4,6
411.526,3,0,1,3
411.527,2,-1,-1,1
411.527,3,0,-1,2
411.528,3,1,0,3
411.528,3,-1,0,5
411.529,5,0,0,7
411.529,7,1,1,7
411.53,8,0,0,6
411.531,7,1,0,5
411.531,7,2,0,4
411.532,7,4,2,3
411.532,6,5,3,4
411.533,5,6,5,3
411.534,4,4,3,1
411.534,2,4,0,-2
411.535,0,3,0,-3
411.535,0,7,4,-2
411.536,0,7,4,-3
411.536,0,6,2,-5
411.537,-1,6,4,-3
411.538,0,9,7,0
411.538,2,10,10,1
411.539,0,5,4,-1
411.539,-1,1,1,0
411.54,-1,1,0,0
411.54,0,0,1,0
411.541,0,1,2,2
411.542,2,2,3,4
411.542,3,3,4,5
411.543,4,2,3,5
411.543,3,1,3,5
411.544,3,1,2,5
411.544,5,1,0,3
411.545,4,0,-1,3
411.546,4,0,0,2
411.546,5,1,-2,1
411.547,5,1,-2,2
411.547,8,6,2,5
411.548,8,6,5,7
411.548,6,1,0,5
411.549,6,0,0,5
411.55,5,0,0,4
411.55,5,-1,-1,5
411.551,6,3,2,6
411.551,7,4,4,7
411.552,7,5,5,5
411.552,4,3,3,1
411.553,1,2,2,1
411.554,0,2,3,2
411.554,2,5,5,1
411.555,1,6,4,0
411.555,0,6,2,-4
411.556,-1,5,0,-6
411.557,-2,5,0,-6
411.557,-1,6,2,-4
411.558,0,9,6,0
411.558,2,8,7,0
411.559,0,4,3,0
411.559,0,1,2,0
411.56,0,2,0,0
411.561,1,4,2,2
411.561,3,2,2,1
411.562,3,2,2,2
411.562,3,4,3,4
411.563,5,4,4,6
411.563,6,4,3,5
411.564,4,2,1,3
411.565,4,3,3,5
411.565,4,2,4,5
411.566,4,2,2,4
411.566,3,0,1,3
411.567,2,0,0,2
411.567,2,0,0,3
411.568,1,-2,-1,3
411.569,3,-2,-1,5
411.569,6,-1,-3,4
411.57,6,-1,-3,3
411.57,6,1,-1,5
411.571,9,5,3,7
411.571,9,6,6,7
411.572,9,8,6,6
411.573,7,6,5,3
411.573,4,5,4,1
411.574,3,5,3,0
411.574,0,4,2,-2
411.575,0,4,1,-3
411.575,0,5,3,-3
411.576,0,6,2,-3
411.577,-1,6,3,-4
411.577,-1,5,3,-3
411.578,-1,5,3,-1
411.578,0,5,3,-1
411.579,0,4,3,0
411.579,1,4,4,1
411.58,2,4,4,1
411.581,0,3,2,1
411.581,2,2,2,2
411.582,2,3,4,4
411.582,3,3,3,3
411.583,3,1,2,3
411.583,3,1,2,4
411.584,4,2,2,4
411.585,4,2,2,4
411.585,3,0,1,3
411.586,3,0,0,3
411.586,4,0,0,3
411.587,5,3,2,5
411.587,7,2,1,5
411.588,4,-1,-1,4
411.589,4,-2,-1,6
411.589,5,0,1,7
411.59,6,0,0,7
411.59,8,2,1,7
411.591,8,3,2,5
411.591,5,2,0,2
411.592,4,3,2,2
411.593,4,6,3,2
411.593,3,4,1,0
411.594,2,5,1,-1
411.594,2,6,3,-1
411.595,1,8,5,0
411.595,1,8,6,-1
411.596,0,7,5,-1
411.597,0,7,5,-2
411.597,-2,5,4,-2
411.598,-2,4,2,-2
411.598,-1,2,0,-3
411.599,0,3,2,-1
411.6,0,4,4,1
411.6,2,5,5,2
411.601,1,4,5,2
411.601,1,0,2,2
411.602,1,0,1,1
411.602,2,1,2,3
411.603,3,3,3,4
411.604,4,2,2,5
411.604,4,2,2,4
411.605,5,2,1,4
411.605,5,2,0,4
411.606,5,2,1,3
411.606,4,0,0,5
411.607,6,1,0,6
411.608,6,1,0,4
411.608,4,-3,-2,4
411.609,5,-1,-1,5
411.609,6,1,0,5
411.61,4,0,0,5
411.611,6,2,2,6
411.611,7,4,3,5
411.612,6,5,4,4
411.612,5,5,3,1
411.613,2,4,4,0
411.613,1,4,3,1
411.614,3,6,4,0
411.615,2,7,5,0
411.615,1,7,5,-1
411.616,1,8,5,-2
411.616,0,7,4,-3
411.617,0,6,3,-3
411.617,-2,4,3,-4
411.618,-2,3,2,-3
411.619,-2,1,0,-3
411.619,-1,1,0,0
411.62,1,2,2,2
411.62,2,4,3,3
411.621,4,5,4,4
411.621,6,5,4,4
411.622,4,3,3,4
411.622,4,3,2,3
411.623,2,2,2,3
411.624,3,1,1,4
411.624,3,2,5,6
411.625,4,3,6,8
411.625,4,1,4,6
411.626,4,0,0,2
411.627,1,0,-2,0
411.627,1,-1,-4,0
411.628,1,-4,-7,0
411.628,3,-3,-7,1
411.629,7,2,0,7
411.629,10,6,4,10
411.63,11,5,5,10
411.631,11,6,5,8
411.631,9,5,3,6
411.632,7,5,3,3
411.632,4,4,4,2
411.633,2,3,3,1
411.633,2,3,2,0
411.634,1,5,3,-1
411.635,0,4,1,-4
411.635,-1,5,2,-4
411.636,-1,5,2,-5
411.636,0,7,3,-4
411.637,0,9,7,0
411.637,1,8,7,0
411.638,0,6,5,0
411.639,-1,2,2,-1
411.639,-1,1,2,0
411.64,0,2,2,1
411.64,0,2,1,0
411.641,0,0,1,1
411.642,1,2,3,4
411.642,3,2,4,5
411.643,5,3,2,3
411.643,3,2,0,2
411.644,3,1,-1,2
411.644,5,2,0,3
411.645,6,4,1,6
411.646,7,4,2,6
411.646,7,5,3,7
411.647,7,3,3,6
411.647,5,2,1,4
411.648,3,-1,0,4
411.648,3,-1,1,7
411.649,3,-1,0,5
411.65,4,-2,-1,4
411.65,4,0,0,5
411.651,4,0,1,5
411.651,5,1,0,4
411.652,5,3,0,0
411.652,4,5,1,0
411.653,4,6,1,1
411.654,5,8,3,0
411.654,5,10,6,0
411.655,4,10,6,0
411.655,2,9,6,-1
411.656,0,8,5,-3
411.656,-1,6,3,-4
411.657,-3,3,2,-5
411.658,-4,4,4,-1
411.658,-1,3,3,-1
411.659,-1,2,2,0
411.659,0,2,2,0
411.66,1,2,3,1
411.66,2,1,1,0
411.661,2,2,2,2
411.662,4,4,3,3
411.662,4,3,3,4
411.663,4,2,1,3
411.663,4,2,2,4
411.664,4,2,2,4
411.664,5,3,2,4
411.665,5,3,2,5
411.666,5,2,0,3
411.666,4,0,0,4
411.667,4,1,1,4
411.667,3,0,0,4
411.668,4,-1,0,5
411.669,5,0,0,5
411.669,5,0,1,6
411.67,5,0,-1,4
411.67,6,1,0,4
411.671,6,4,1,4
411.671,5,4,3,4
411.672,5,6,4,3
411.673,4,6,4,3
411.673,3,5,4,0
411.674,2,5,4,0
411.674,0,5,3,-1
411.675,0,7,5,-1
411.675,0,7,6,-1
411.676,0,6,4,-2
411.677,0,4,2,-5
411.677,-3,3,0,-6
411.678,-2,5,3,-3
411.678,0,6,4,0
411.679,0,4,3,1
411.68,1,3,3,1
411.68,1,3,4,2
411.681,2,2,3,3
411.681,3,3,3,2
411.682,3,2,2,4
411.682,4,2,2,3
411.683,3,1,0,2
411.683,3,1,1,2
411.684,3,1,-1,1
411.685,4,2,0,4
411.685,7,3,1,6
411.686,8,4,3,7
411.686,7,3,3,7
411.687,5,2,2,5
411.687,4,0,0,3
411.688,2,-2,-1,4
411.689,3,-1,-1,3
411.689,3,0,-2,2
411.69,2,0,0,3
411.69,5,2,3,7
411.691,8,5,5,6
411.691,7,5,4,5
411.692,6,5,4,3
411.693,4,5,3,2
411.693,2,4,2,1
411.694,4,8,4,1
411.694,2,7,4,0
411.695,1,6,3,-3
411.695,-1,5,3,-4
411.696,-1,8,6,-2
411.697,-1,5,5,-2
411.697,-3,4,2,-4
411.698,-3,3,1,-3
411.698,-1,1,2,0
411.699,0,3,1,0
411.7,1,3,2,1
411.7,2,4,3,3
411.701,3,5,4,5
411.701,4,3,3,4
411.702,4,3,2,3
411.702,3,2,1,3
411.703,4,2,1,3
411.704,3,1,2,4
411.704,5,2,1,3
411.705,4,1,1,4
411.705,5,2,1,3
411.706,4,2,1,3
411.706,4,2,0,3
411.707,5,2,0,4
411.708,5,0,0,6
411.708,5,-1,0,5
411.709,6,0,0,7
411.709,6,1,1,7
411.71,6,0,1,6
411.71,6,2,1,4
411.711,4,2,1,3
411.711,5,3,3,3
411.712,4,5,3,2
411.713,3,5,3,1
411.713,3,5,3,0
411.714,1,6,4,-1
411.714,0,5,3,-2
411.715,1,7,5,-1
411.716,1,8,3,-3
411.716,0,9,5,-2
411.717,0,8,5,-2
411.717,-1,6,4,-2
411.718,-1,4,3,-2
411.718,-2,1,0,-1
411.719,-1,1,1,0
411.72,0,2,1,0
411.72,0,2,1,2
411.721,2,2,2,5
411.721,6,4,2,3
411.722,4,3,2,4
411.723,5,5,4,5
411.723,4,3,4,6
411.724,4,1,2,4
411.724,3,1,2,4
411.725,4,0,0,3
411.725,4,0,-1,2
411.726,4,2,0,4
411.727,5,3,1,4
411.727,5,2,0,3
411.728,3,-1,0,5
411.728,5,0,1,6
411.729,5,0,1,6
411.73,5,0,1,6
411.73,6,0,0,4
411.73,5,1,0,4
411.731,6,3,1,4
411.732,6,5,3,2
411.732,5,5,3,2
411.733,4,5,3,1
411.733,3,7,4,0
411.734,3,7,4,0
411.734,1,7,4,-2
411.735,0,7,5,-2
411.736,0,7,6,-2
411.736,0,6,5,-2
411.737,-1,5,4,-2
411.737,-1,4,3,-2
411.738,-2,1,1,-1
411.738,-1,1,2,0
411.739,0,2,2,2
411.74,1,3,3,1
411.74,2,1,1,1
411.741,3,3,2,2
411.741,4,3,1,2
411.742,5,3,0,0
411.742,4,3,0,1
411.743,5,5,2,3
411.744,5,4,3,5
411.744,7,4,3,6
411.745,5,2,1,4
411.745,5,2,1,4
411.746,4,0,0,3
411.747,4,0,0,3
411.747,5,1,2,5
411.748,5,0,0,5
411.748,5,0,0,6
411.749,6,0,0,5
411.749,5,0,-1,5
411.75,5,0,0,5
411.751,5,2,3,6
411.751,6,4,3,5
411.752,6,5,3,3
411.752,3,4,2,0
411.753,2,4,1,0
411.753,2,6,4,0
411.754,2,8,7,0
411.755,1,7,6,-1
411.755,0,6,4,-3
411.756,0,6,3,-3
411.756,-2,5,3,-4
411.757,-3,3,2,-4
411.758,-2,4,2,-3
411.758,-1,3,1,-1
411.759,0,3,1,0
411.759,2,3,2,0
411.76,2,3,3,2
411.76,5,5,3,3
411.761,5,4,1,3
411.761,6,4,0,2
411.762,5,4,1,3
411.763,5,3,2,4
411.763,5,4,4,5
411.764,6,4,5,6
411.764,5,4,6,6
411.765,3,1,2,4
411.766,1,-1,0,0
411.766,0,-1,-1,0
411.767,1,0,0,3
411.767,1,-1,2,7
411.768,5,-1,0,8
411.768,6,-1,0,8
411.769,7,1,2,8
411.77,7,0,1,6
411.77,6,1,1,4
411.771,3,0,-1,0
411.771,1,1,-1,0
411.772,3,3,0,-1
411.772,3,6,2,0
411.773,4,7,3,0
411.774,6,10,6,1
411.774,6,11,7,1
411.775,5,12,7,0
411.775,2,9,6,-2
411.776,0,7,3,-3
411.776,-1,4,1,-5
411.777,-1,5,2,-3
411.778,0,6,4,-1
411.778,0,3,2,-1
411.779,0,1,2,0
411.779,1,3,5,4
411.78,3,5,5,3
411.78,1,1,2,2
411.781,1,0,1,2
411.782,2,2,2,3
411.782,2,1,1,2
411.783,3,0,0,2
411.783,3,1,1,3
411.784,4,2,2,4
411.784,5,3,2,5
411.785,6,3,1,4
411.786,5,2,2,5
411.786,5,3,2,5
411.787,5,2,2,5
411.787,3,0,1,6
411.788,3,-2,-1,4
411.789,4,-2,-1,4
411.789,4,-1,0,5
411.79,5,0,2,6
411.79,8,3,3,7
411.791,7,3,2,5
411.791,6,3,2,4
411.792,5,4,2,2
411.793,3,4,1,0
411.793,2,4,1,0
411.794,3,7,5,0
411.794,2,7,5,0
411.795,1,7,5,-2
411.795,-1,5,3,-3
411.796,-1,5,3,-3
411.797,-2,4,3,-4
411.797,-2,6,3,-2
411.798,0,7,6,-1
411.798,0,5,3,-2
411.799,-1,2,1,-1
411.799,0,3,3,1
411.8,2,2,1,1
411.801,2,2,0,1
411.801,4,3,2,4
411.802,6,5,4,6
411.802,5,3,4,6
411.803,5,3,3,5
411.803,5,1,1,3
411.804,4,1,0,2
411.805,4,1,0,3
411.805,4,2,1,3
411.806,4,1,1,5
411.806,6,3,1,4
411.807,5,2,0,4
411.807,3,-1,0,5
411.808,5,0,0,6
411.809,5,0,1,7
411.809,6,0,1,7
411.81,7,2,1,6
411.81,7,2,1,5
411.811,5,3,1,3
411.811,5,3,2,2
411.812,3,4,2,2
411.813,3,3,3,1
411.813,3,6,3,0
411.814,2,5,3,-2
411.814,0,7,3,-3
411.815,0,7,4,-2
411.815,0,7,4,-2
411.816,0,7,4,-3
411.817,0,5,2,-4
411.817,0,5,3,-2
411.818,0,6,5,0
411.818,0,5,7,3
411.819,1,5,8,4
411.819,0,1,2,0
411.82,0,0,0,0
411.821,0,3,5,5
411.821,1,0,4,4
411.822,1,0,2,3
411.822,2,0,0,3
411.823,2,0,0,3
411.823,3,0,0,3
411.824,3,1,0,4
411.825,5,2,0,4
411.825,6,3,0,4
411.826,6,2,0,3
411.826,6,2,0,4
411.827,6,2,1,5
411.828,6,0,0,7
411.828,7,1,1,8
411.829,8,2,2,6
411.829,6,0,1,6
411.83,6,0,1,5
411.83,5,2,3,5
411.831,5,3,2,3
411.832,4,5,4,3
411.832,4,3,1,0
411.833,1,2,0,-1
411.833,2,4,1,-2
411.834,3,8,3,-2
411.834,2,10,7,0
411.835,1,8,5,-2
411.836,0,7,3,-4
411.836,-1,6,3,-4
411.837,-2,5,3,-2
411.837,-1,5,4,-1
411.838,-1,2,3,0
411.838,0,2,2,1
411.839,1,4,3,2
411.84,1,3,3,1
411.84,2,1,2,2
411.841,2,2,2,2
411.841,3,2,2,3
411.842,4,2,1,2
411.842,4,2,0,1
411.843,4,3,2,4
411.844,6,5,5,7
411.844,6,4,5,7
411.845,5,1,1,4
411.845,5,1,0,2
411.846,3,0,0,3
411.846,3,0,0,4
411.847,4,0,0,5
411.848,5,0,0,6
411.848,5,0,0,7
411.849,7,0,0,5
411.849,4,-2,-1,3
411.85,4,0,0,3
411.851,5,3,1,3
411.851,6,5,3,3
411.852,5,7,5,2
411.852,3,6,6,2
411.853,2,5,5,1
411.853,2,6,5,0
411.854,2,7,6,0
411.854,0,7,6,-1
411.855,0,5,2,-4
411.856,0,5,2,-5
411.856,-1,5,1,-4
411.857,0,5,1,-4
411.857,0,5,1,-3
411.858,0,4,1,-1
411.859,1,5,6,4
411.859,3,5,6,3
411.86,1,2,4,2
411.86,0,1,3,4
411.861,2,1,4,4
411.861,2,1,2,3
411.862,3,0,0,1
411.863,3,2,1,3
411.863,5,4,3,5
411.864,6,3,1,4
411.864,4,0,0,3
411.865,4,1,1,4
411.865,5,2,1,4
411.866,5,2,1,4
411.867,5,2,1,4
411.867,4,0,0,5
411.868,5,-1,0,5
411.868,6,0,0,7
411.869,6,1,1,6
411.869,6,0,0,4
411.87,6,2,2,7
411.871,7,4,3,4
411.871,6,4,2,2
411.872,3,3,2,2
411.872,2,3,1,0
411.873,3,4,1,0
411.873,4,8,4,0
411.874,2,8,6,-1
411.875,0,9,8,0
411.875,0,7,6,-1
411.876,0,7,7,-2
411.876,-1,5,4,-2
411.877,-4,2,2,-3
411.877,-3,1,0,-2
411.878,-2,0,0,-2
411.879,0,1,-1,-2
411.879,0,2,0,0
411.88,2,5,2,2
411.88,5,5,4,4
411.881,6,6,6,6
411.882,6,5,5,5
411.882,4,3,2,3
411.883,3,1,1,2
411.883,3,0,0,2
411.884,3,2,2,4
411.884,6,3,1,4
411.886,4,1,0,3
411.886,4,2,0,3
411.886,5,2,1,4
411.887,6,2,2,5
411.887,4,0,0,6
411.888,5,-1,0,6
411.888,6,0,0,5
411.889,4,-1,0,6
411.89,5,1,1,7
411.89,7,3,1,5
411.891,5,3,3,4
411.891,5,5,3,3
411.892,3,5,4,2
411.892,3,4,3,1
411.893,2,4,3,0
411.894,0,5,4,-1
411.894,0,6,4,-2
411.895,0,6,4,-3
411.895,-1,5,1,-5
411.896,-1,6,1,-4
411.896,0,6,4,-2
411.897,0,6,2,-3
411.898,0,4,2,-1
411.898,0,3,4,1
411.899,2,4,4,2
411.899,2,3,3,2
411.9,3,4,3,2
411.901,2,3,3,3
411.901,3,3,4,5
411.902,3,2,2,3
411.902,3,1,0,1
411.903,2,1,0,3
411.903,4,2,0,3
411.904,5,2,0,2
411.905,5,2,0,4
411.905,6,4,3,6
411.906,6,5,5,8
411.906,6,2,2,5
411.907,3,-1,0,3
411.907,1,-3,-1,3
411.908,2,-3,-2,5
411.908,5,0,0,5
411.909,5,0,0,7
411.91,8,3,2,6
411.91,7,4,3,7
411.911,7,5,4,6
411.911,6,5,5,4
411.912,4,5,4,2
411.912,2,2,0,-1
411.913,1,3,0,-3
411.914,0,5,1,-4
411.914,0,7,3,-4
411.915,0,7,4,-2
411.915,1,9,5,-1
411.916,0,8,5,-1
411.917,1,8,6,0
411.917,0,7,8,0
411.918,-1,3,4,0
411.918,-1,0,1,0
411.919,0,1,1,0
411.919,0,0,2,1
411.92,0,0,0,0
411.921,2,2,0,1
411.921,4,4,1,3
411.922,6,6,5,6
411.922,5,4,4,5
411.923,4,2,2,4
411.923,4,0,0,3
411.924,4,1,0,3
411.925,5,2,1,4
411.925,6,3,2,4
411.926,5,3,2,4
411.926,5,3,3,6
411.927,4,1,2,6
411.927,3,-2,0,4
411.928,3,-3,-2,4
411.929,3,-2,-2,4
411.929,5,-1,-1,5
411.93,8,2,1,7
411.93,9,4,2,6
411.931,8,4,2,4
411.932,6,4,3,3
411.932,5,6,4,2
411.933,3,5,4,0
411.933,2,7,3,-2
411.934,0,8,4,-4
411.934,-2,7,4,-5
411.935,-2,6,3,-5
411.936,-1,7,3,-4
411.936,-1,5,4,-3
411.937,-1,5,4,-1
411.937,0,5,5,0
411.938,0,4,5,2
411.938,2,4,5,3
411.939,3,4,4,3
411.94,1,0,2,1
411.94,0,0,0,2
411.941,1,1,1,3
411.941,4,2,2,4
411.942,5,2,1,3
411.942,4,3,1,3
411.943,5,3,1,1
411.944,4,3,0,2
411.944,4,2,1,3
411.945,4,2,1,4
411.945,3,1,1,4
411.946,5,2,0,3
411.946,5,2,0,3
411.947,4,0,-1,4
411.948,4,-1,-1,4
411.948,5,0,0,6
411.949,7,0,0,7
411.949,7,2,2,8
411.95,8,3,2,7
411.95,7,4,3,5
411.951,5,4,2,4
411.952,4,3,2,2
411.952,4,5,4,1
411.953,3,6,4,0
411.953,1,5,3,-1
411.954,0,5,2,-4
411.954,0,7,4,-3
411.955,0,6,4,-3
411.956,0,6,3,-4
411.956,-1,5,2,-4
411.957,-1,5,3,-1
411.957,0,7,5,0
411.958,1,5,5,1
411.958,2,4,4,2
411.959,1,3,4,2
411.96,0,2,3,2
411.96,0,2,3,3
411.961,2,1,2,2
411.961,2,1,1,2
411.962,3,1,1,4
411.963,4,1,1,4
411.963,4,0,0,2
411.964,5,2,0,1
411.964,5,2,0,3
411.965,6,3,1,5
411.965,7,5,4,6
411.966,7,4,4,6
411.966,7,2,2,5
411.967,3,-1,0,5
411.968,3,-2,0,5
411.968,5,0,1,6
411.969,4,0,0,6
411.969,5,0,0,4
411.97,5,1,0,4
411.971,5,2,0,2
411.971,5,4,2,2
411.972,5,5,4,1
411.972,3,5,4,2
411.973,2,5,2,0
411.973,1,6,2,-2
411.974,1,7,4,-1
411.974,1,8,6,-1
411.975,0,7,4,-2
411.976,0,7,5,-2
411.976,0,7,6,-1
411.977,0,5,3,-3
411.977,-2,2,1,-2
411.978,-1,2,3,1
411.979,0,2,2,0
411.979,0,0,1,0
411.98,1,2,1,2
411.98,3,3,2,3
411.981,4,3,3,4
411.981,4,4,4,5
411.982,5,3,3,4
411.983,4,2,1,3
411.983,4,1,1,3
411.984,4,1,0,3
411.984,4,2,0,4
411.985,5,3,2,5
411.985,7,3,1,4
411.986,5,2,0,2
411.987,3,-1,-2,2
411.987,3,0,1,8
411.988,6,0,3,10
411.988,7,0,1,6
411.989,6,-1,-2,4
411.99,5,1,0,4
411.99,5,2,1,4
411.991,4,3,2,4
411.991,5,5,4,4
411.992,5,6,4,3
411.992,4,6,4,2
411.993,3,7,6,0
411.994,1,4,2,-3
411.994,0,4,2,-5
411.995,-1,6,3,-3
411.995,0,8,5,-3
411.996,-1,6,4,-3
411.996,-2,3,0,-6
411.997,-2,3,0,-5
411.998,-1,4,4,0
411.998,0,5,6,3
411.999,2,4,6,3
411.999,1,3,5,4
412,3,4,4,4
412,4,3,2,3
412.001,3,1,1,2
412.002,2,0,0,2
412.002,3,1,0,3
412.003,6,3,2,4
412.003,7,4,2,4
412.004,6,3,1,3
412.004,4,0,0,2
412.005,3,0,0,4
412.006,6,3,2,5
412.006,6,3,2,6
412.007,5,0,0,4
412.007,4,-1,0,5
412.008,5,0,0,5
412.008,6,0,0,5
412.009,5,0,1,6
412.01,6,2,2,6
412.01,5,2,2,5
412.011,6,3,4,5
412.011,6,4,3,4
412.012,4,5,3,2
412.012,3,3,0,-2
412.013,0,4,1,-4
412.014,0,6,2,-3
412.014,0,7,5,-3
412.015,0,8,5,-3
412.015,0,8,4,-4
412.016,-1,6,3,-3
412.016,0,7,3,-3
412.017,0,6,4,-2
412.018,0,4,2,0
412.018,1,4,3,2
412.019,3,6,5,4
412.019,3,6,7,6
412.02,3,5,7,6
412.021,3,1,4,4
412.021,0,0,0,1
412.022,0,0,0,1
412.022,1,0,-1,1
412.023,1,0,-1,1
412.023,2,0,-1,2
412.024,4,2,0,4
412.024,7,4,2,5
412.025,8,5,3,5
412.026,7,2,1,3
412.026,5,1,0,4
412.027,3,0,0,6
412.027,7,2,4,9
412.028,7,1,2,8
412.029,5,0,0,6
412.029,4,0,0,5
412.03,5,0,1,4
412.03,6,2,0,2
412.031,4,2,0,0
412.031,3,3,-1,0
412.032,3,5,0,0
412.033,4,8,4,0
412.033,4,10,9,3
412.034,3,10,8,0
412.034,0,7,5,-2
412.035,-2,4,1,-5
412.035,-2,4,3,-3
412.036,-2,5,3,-3
412.037,-1,4,2,-3
412.037,-1,4,1,-2
412.038,0,3,2,-1
412.038,0,4,3,1
412.039,3,4,2,2
412.039,3,4,3,3
412.04,3,5,6,5
412.041,5,4,5,5
412.041,4,3,3,4
412.042,2,1,3,2
412.042,2,1,2,4
412.043,3,1,0,3
412.044,4,1,0,3
412.044,4,0,0,1
412.045,2,0,0,1
412.045,4,1,1,4
412.046,5,2,1,5
412.046,6,2,1,5
412.047,5,0,0,5
412.048,5,-1,0,5
412.048,6,0,0,5
412.049,6,0,0,7
412.049,8,3,1,6
412.05,7,4,2,4
412.05,7,5,2,3
412.051,5,4,3,2
412.052,4,5,4,3
412.052,3,6,6,3
412.053,3,7,6,1
412.053,2,7,4,-2
412.054,-1,7,3,-6
412.054,-4,5,3,-5
412.055,-2,6,1,-6
412.056,-2,4,1,-4
412.056,0,6,3,-2
412.057,0,7,5,0
412.057,0,6,7,3
412.058,1,3,4,1
412.058,0,2,2,0
412.059,0,1,1,0
412.06,0,0,1,2
412.06,1,0,0,1
412.061,2,0,1,4
412.061,7,5,3,4
412.062,6,4,3,5
412.062,6,3,1,4
412.063,5,2,0,2
412.064,5,3,2,5
412.064,6,3,3,6
412.065,6,3,4,6
412.065,4,1,2,5
412.066,3,0,1,4
412.066,2,0,1,6
412.067,2,-3,-1,4
412.068,2,-3,-2,4
412.068,3,-1,0,5
412.069,5,0,0,6
412.069,7,1,0,4
412.07,7,3,0,3
412.07,8,6,2,3
412.071,6,6,0,1
412.072,5,6,1,0
412.072,4,7,4,2
412.073,6,9,6,1
412.073,5,9,6,0
412.074,2,8,5,-1
412.074,0,7,4,-2
412.075,0,6,4,-3
412.076,-2,4,2,-4
412.076,-2,3,2,-4
412.077,-2,4,2,-2
412.077,-1,2,1,-1
412.078,0,2,1,0
412.079,0,3,2,2
412.079,2,2,3,2
412.08,2,4,4,3
412.08,3,3,3,3
412.081,3,2,2,3
412.081,3,2,1,3
412.082,3,1,2,3
412.083,3,1,2,4
412.083,4,2,2,4
412.084,5,2,1,4
412.084,4,1,1,3
412.085,5,2,1,4
412.085,5,3,2,4
412.086,4,2,2,5
412.087,4,0,0,4
412.087,3,-2,0,5
412.088,5,0,0,6
412.088,6,0,0,7
412.089,7,1,0,5
412.089,6,2,1,5
412.09,6,3,1,4
412.091,6,4,3,3
412.091,5,6,4,3
412.092,4,5,3,0
412.092,2,4,3,0
412.093,1,5,3,-1
412.093,0,6,4,-1
412.094,0,7,4,-2
412.095,0,6,2,-3
412.095,-1,6,4,-3
412.096,0,6,3,-2
412.096,-1,5,3,-1
412.097,0,5,3,1
412.097,1,4,4,2
412.098,2,3,2,1
412.099,2,3,1,0
412.099,0,1,-1,-1
412.1,1,2,1,1
412.1,2,3,3,2
412.101,3,4,3,3
412.101,4,4,4,4
412.102,4,4,4,5
412.103,3,3,3,3
412.103,3,2,1,2
412.104,3,2,3,5
412.104,5,2,2,4
412.105,5,2,1,4
412.105,4,1,0,3
412.106,4,0,0,4
412.107,4,-1,0,5
412.107,5,0,0,7
412.108,6,0,0,7
412.108,6,0,0,6
412.109,6,1,1,6
412.11,7,3,3,6
412.11,5,3,3,4
412.111,5,4,2,3
412.111,3,2,0,0
412.112,2,3,0,-1
412.112,3,7,3,0
412.113,4,8,4,0
412.114,3,9,5,-1
412.114,2,8,4,-3
412.115,0,7,4,-3
412.115,0,6,4,-3
412.116,-1,5,3,-3
412.116,-1,4,3,-3
412.117,-1,4,3,0
412.118,1,5,5,2
412.118,2,5,4,2
412.119,1,4,7,5
412.119,2,4,7,5
412.12,1,0,2,2
412.12,0,-2,-1,0
412.121,0,-1,-3,-2
412.122,0,-1,-2,0
412.122,3,2,0,2
412.123,6,5,4,6
412.123,7,5,5,7
412.124,7,4,3,5
412.124,5,2,1,4
412.125,5,2,2,5
412.126,5,2,2,5
412.126,4,1,0,3
412.127,2,-1,-1,4
412.127,4,-1,-1,5
412.128,5,0,0,6
412.128,5,0,0,6
412.129,7,1,0,5
412.13,6,3,1,5
412.13,7,4,3,4
412.131,5,5,3,3
412.131,4,5,3,2
412.132,4,5,5,2
412.132,4,7,5,0
412.133,1,6,4,-1
412.134,0,6,3,-3
412.134,0,7,5,-2
412.135,0,6,4,-4
412.135,-3,4,0,-6
412.136,-4,2,0,-6
412.136,-2,3,2,-3
412.137,-2,2,3,0
412.138,0,4,3,2
412.138,3,4,5,3
412.139,4,5,5,4
412.139,4,5,3,3
412.14,4,4,4,5
412.141,5,4,4,4
412.141,4,3,4,4
412.142,4,1,-1,1
412.142,2,0,-2,0
412.143,1,0,-1,2
412.143,3,0,0,5
412.144,6,3,2,6
412.145,7,4,2,5
412.145,6,2,1,3
412.146,3,1,1,4
412.146,3,0,1,6
412.147,3,0,0,5
412.147,5,1,3,7
412.148,6,2,3,6
412.149,4,0,0,4
412.149,4,1,0,3
412.15,3,1,0,1
412.15,3,1,0,0
412.151,3,4,1,1
412.151,5,7,4,2
412.152,6,9,7,4
412.153,5,9,7,2
412.153,3,8,5,0
412.154,1,8,5,-2
412.154,0,5,3,-4
412.155,-2,4,0,-6
412.155,-3,2,0,-6
412.156,-2,4,1,-3
412.157,0,5,4,0
412.157,0,4,3,0
412.158,0,2,3,1
412.158,1,4,4,2
412.159,0,2,3,3
412.16,2,2,3,4
412.16,3,3,2,3
412.161,4,3,1,3
412.161,4,2,0,2
412.162,3,1,1,3
412.162,4,2,2,4
412.163,5,3,2,5
412.164,6,2,2,5
412.164,5,3,2,4
412.165,5,2,1,4
412.165,5,2,0,3
412.166,4,0,-1,1
412.166,2,-1,-1,3
412.167,4,0,-1,4
412.168,6,0,0,6
412.168,7,1,0,6
412.169,7,1,2,7
412.169,8,4,4,7
412.17,8,6,6,7
412.17,8,6,4,2
412.171,3,2,1,0
412.172,1,3,3,2
412.172,3,4,3,1
412.173,2,4,1,-2
412.173,0,4,3,-2
412.174,-1,4,2,-5
412.174,-2,4,1,-5
412.175,-1,6,4,-4
412.176,-2,7,5,-2
412.176,0,7,5,-1
412.177,0,7,5,0
412.177,0,4,4,0
412.178,0,2,3,0
412.178,0,2,2,2
412.179,2,4,4,3
412.18,4,4,4,5
412.18,5,4,5,5
412.181,4,2,3,4
412.181,2,0,1,3
412.182,2,1,1,4
412.182,4,2,1,4
412.183,5,2,1,4
412.184,4,0,-1,2
412.184,3,0,-1,1
412.185,4,1,0,2
412.185,5,3,1,6
412.186,7,4,3,5
412.186,5,0,1,7
412.187,5,0,1,6
412.188,6,0,0,5
412.188,4,-2,-2,4
412.189,6,0,-1,3
412.189,5,1,-1,2
412.19,6,4,0,3
412.19,8,7,3,3
412.191,7,7,3,2
412.192,5,6,3,1
412.192,4,9,9,3
412.193,4,9,8,1
412.193,1,7,5,-1
412.194,-1,4,3,-3
412.195,-2,4,3,-3
412.195,-3,2,1,-5
412.196,-4,2,1,-3
412.196,-1,5,4,-1
412.197,-1,3,4,0
412.197,0,2,2,0
412.198,0,1,2,0
412.199,0,3,3,2
412.199,2,3,3,2
412.2,3,3,2,3
412.2,4,4,2,3
412.201,5,3,1,3
412.201,4,2,2,3
412.202,4,1,2,5
412.203,6,2,1,4
412.203,5,2,0,4
412.204,5,2,0,4
412.204,6,4,2,4
412.205,5,2,1,4
412.205,5,3,2,5
412.206,5,0,0,3
412.207,3,-2,-2,3
412.207,3,-2,-2,3
412.208,4,0,0,5
412.208,6,0,1,7
412.209,8,3,2,7
412.209,8,4,3,5
412.21,6,4,2,3
412.211,4,3,3,1
412.211,3,4,2,1
412.212,3,4,3,0
412.212,3,6,4,0
412.213,2,7,4,-1
412.213,0,7,4,-2
412.214,-1,6,3,-3
412.215,0,7,5,-2
412.215,-1,5,4,-1
412.216,-1,4,2,-3
412.216,0,4,1,-3
412.217,-1,2,1,-1
412.217,0,3,2,0
412.218,1,4,4,1
412.219,2,3,1,0
412.219,2,2,1,2
412.22,4,4,4,5
412.22,6,6,5,6
412.221,7,5,5,5
412.221,6,3,2,4
412.222,4,2,3,5
412.223,2,0,2,5
412.223,2,0,0,4
412.224,3,0,1,3
412.224,3,0,1,3
412.225,1,0,-1,2
412.225,2,0,-1,1
412.226,1,-2,-1,4
412.227,4,0,0,6
412.227,7,0,1,8
412.228,8,1,1,7
412.228,8,1,1,7
412.229,9,4,3,6
412.229,6,3,2,3
412.23,6,4,3,2
412.231,4,4,2,1
412.231,2,3,0,-1
412.232,1,4,2,-1
412.232,2,9,7,0
412.233,3,10,7,-1
412.233,0,9,5,-2
412.234,0,7,4,-3
412.235,-1,6,4,-3
412.235,-2,4,3,-4
412.236,-2,3,2,-3
412.236,0,5,5,0
412.237,0,3,3,0
412.238,1,3,2,0
412.238,1,2,2,0
412.239,0,1,0,0
412.239,0,2,3,3
412.24,4,3,3,4
412.24,4,3,3,4
412.241,3,2,3,4
412.242,4,2,2,4
412.242,4,2,2,4
412.243,5,2,0,2
412.243,3,1,-1,2
412.244,4,1,0,2
412.244,5,2,1,3
412.245,5,2,0,3
412.246,5,2,0,4
412.246,5,0,0,6
412.247,6,0,1,8
412.247,7,2,2,8
412.248,7,0,0,7
412.248,7,1,0,6
412.249,5,0,0,3
412.25,4,1,1,3
412.25,5,4,2,3
412.251,5,5,4,2
412.251,4,5,2,0
412.252,2,6,3,0
412.253,2,8,6,0
412.253,1,7,5,-1
412.254,0,7,6,-2
412.254,-2,5,3,-3
412.255,-1,6,4,-3
412.255,-1,5,3,-3
412.256,-3,2,2,-2
412.256,-2,2,2,-2
412.257,-1,2,2,0
412.258,1,3,4,2
412.258,4,4,3,3
412.259,4,3,2,2
412.259,4,3,2,3
412.26,4,3,2,3
412.261,3,2,2,3
412.261,2,1,0,2
412.262,2,1,2,3
412.262,3,1,1,2
412.263,4,3,2,4
412.263,5,3,1,3
412.264,4,1,0,2
412.265,4,2,0,2
412.265,6,4,1,3
412.266,7,5,3,6
412.266,5,2,5,10
412.267,5,-1,1,6
412.267,4,-2,-1,5
412.268,4,-1,0,5
412.269,5,0,0,5
412.269,5,1,0,3
412.27,5,3,2,3
412.27,6,5,3,3
412.271,5,5,2,2
412.271,3,3,1,0
412.272,2,5,2,-1
412.273,1,6,3,-1
412.273,1,7,5,-1
412.274,1,8,5,-1
412.274,0,7,4,-3
412.275,-1,5,2,-3
412.275,-1,5,3,-2
412.276,0,5,3,-1
412.277,0,3,3,0
412.277,0,3,3,1
412.278,2,3,2,1
412.278,3,3,1,1
412.279,2,3,3,2
412.279,3,4,3,2
412.28,3,3,3,3
412.281,3,3,2,3
412.281,3,1,2,3
412.282,4,1,0,3
412.282,4,2,1,3
412.283,4,2,1,4
412.284,5,2,0,3
412.284,5,3,2,4
412.285,5,3,2,4
412.285,4,1,1,3
412.286,3,0,0,4
412.286,3,-2,-1,6
412.287,5,0,0,7
412.288,6,0,1,7
412.288,5,0,0,6
412.289,6,2,2,6
412.289,6,3,2,4
412.29,5,3,3,4
412.29,6,4,3,2
412.291,4,4,2,1
412.292,2,5,3,1
412.292,3,7,5,0
412.293,3,8,6,-1
412.293,1,7,4,-4
412.294,-2,5,1,-4
412.294,-2,5,4,-3
412.295,-1,6,4,-3
412.296,-1,4,3,-2
412.296,-1,6,4,-1
412.297,0,4,3,0
412.297,0,2,2,0
412.298,1,2,2,1
412.298,0,2,2,2
412.299,1,2,2,2
412.3,2,2,3,5
412.3,4,2,1,4
412.301,4,3,2,4
412.301,5,3,2,4
412.302,4,2,1,3
412.303,3,2,2,4
412.303,5,2,0,2
412.304,4,0,0,3
412.304,5,2,0,3
412.305,6,3,2,4
412.305,5,2,0,3
412.306,3,0,-1,4
412.306,4,0,0,4
412.307,6,1,2,7
412.308,6,1,2,8
412.308,6,2,3,9
412.309,7,3,3,7
412.309,6,1,0,2
412.31,3,2,0,0
412.311,1,2,0,0
412.311,2,5,3,1
412.312,3,6,5,1
412.312,3,7,7,0
412.313,0,6,5,-2
412.313,0,6,4,-2
412.314,0,5,3,-3
412.315,-1,6,4,-2
412.315,-1,5,3,-3
412.316,0,5,3,-3
412.316,-1,3,1,-3
412.317,-1,2,0,-1
412.317,0,2,1,0
412.318,2,4,2,3
412.319,4,5,4,4
412.319,5,7,6,5
412.32,7,10,10,7
412.32,4,5,7,4
412.321,0,0,0,0
412.321,-1,-1,-1,0
412.322,0,-2,0,2
412.323,1,0,0,3
412.323,3,0,0,4
412.324,5,2,3,7
412.324,8,5,5,7
412.325,7,4,3,5
412.325,5,0,-2,1
412.326,0,-5,-5,1
412.327,2,-2,-1,6
412.327,6,1,1,7
412.328,8,0,0,7
412.328,7,2,0,6
412.329,8,4,1,4
412.329,7,4,2,3
412.33,7,6,3,3
412.331,6,7,5,2
412.331,4,6,5,2
412.332,3,6,4,0
412.332,1,5,2,-3
412.333,0,4,1,-5
412.333,0,6,2,-4
412.334,-1,6,2,-5
412.335,-1,6,2,-3
412.335,0,7,5,-1
412.336,1,7,6,0
412.336,0,4,4,0
412.337,0,2,3,1
412.337,1,4,5,4
412.338,3,5,7,3
412.339,1,2,3,2
412.339,0,0,1,1
412.34,1,0,1,2
412.34,2,0,2,4
412.341,4,2,3,4
412.342,4,1,0,2
412.342,2,0,-1,1
412.343,2,0,0,5
412.343,6,2,3,7
412.344,8,3,2,6
412.344,7,2,2,5
412.345,5,1,1,3
412.346,4,1,0,3
412.346,2,-1,0,3
412.347,3,-1,0,3
412.347,3,1,2,6
412.348,5,1,3,6
412.348,8,3,1,3
412.349,5,2,0,1
412.35,3,1,0,1
412.35,4,2,0,0
412.351,4,6,4,3
412.351,7,9,6,4
412.352,6,9,6,2
412.352,4,8,4,-1
412.353,1,6,3,-3
412.354,0,6,3,-2
412.354,0,6,3,-3
412.355,0,5,3,-3
412.355,-1,6,6,0
412.356,0,5,5,0
412.356,0,3,4,0
412.357,-1,2,3,1
412.358,0,1,2,1
412.358,0,0,0,-1
412.359,0,0,-1,-1
412.359,1,2,3,4
412.36,4,3,3,4
412.36,4,3,3,5
412.361,6,3,2,3
412.362,4,3,2,4
412.362,5,2,0,3
412.363,5,1,-1,1
412.363,4,0,0,2
412.364,5,2,0,4
412.365,6,4,2,5
412.365,6,4,4,7
412.366,6,1,0,5
412.366,4,0,0,6
412.367,5,0,0,6
412.367,6,1,0,3
412.368,5,1,0,5
412.369,7,4,3,6
412.369,8,7,7,7
412.37,6,6,7,4
412.37,2,3,4,1
412.371,0,2,4,1
412.371,-2,0,3,0
412.372,0,3,3,-1
412.372,-1,4,4,-1
412.373,0,4,0,-6
412.374,-1,3,-1,-7
412.374,0,4,-2,-8
412.375,-2,3,-1,-4
412.375,1,8,5,0
412.376,4,9,8,5
412.377,6,11,10,7
412.377,8,11,11,9
412.378,7,8,8,9
412.378,5,0,1,3
412.379,2,-4,-6,-1
412.379,0,-2,-3,1
412.38,2,0,-2,0
412.381,1,0,0,2
412.381,4,2,0,2
412.382,5,2,-1,0
412.382,3,2,0,0
412.383,3,4,3,3
412.383,3,3,1,2
412.384,2,2,0,1
412.385,2,3,4,4
412.385,3,4,6,6
412.386,4,0,3,6
412.386,3,-1,1,8
412.387,6,0,1,8
412.387,7,1,4,13
412.388,11,3,4,9
412.389,9,3,0,3
412.389,3,0,0,2
412.39,1,0,0,1
412.39,3,3,2,0
412.391,1,3,0,-5
412.392,0,4,0,-7
412.392,-2,5,1,-8
412.393,-2,8,6,-1
412.393,2,11,8,1
412.394,3,9,6,-2
412.394,1,11,11,3
412.395,3,11,11,4
412.395,2,11,13,5
412.396,0,4,8,3
412.397,-1,0,0,0
412.397,-1,-2,-1,-2
412.398,-2,-3,-3,-2
412.398,-1,-3,-3,0
412.399,3,1,2,6
412.399,7,4,3,9
412.4,11,3,1,8
412.401,8,2,0,4
412.401,5,0,-4,-5
412.402,-3,-3,-7,-8
412.402,-5,-1,-1,0
412.403,3,3,1,4
412.403,5,3,0,-1
412.404,1,1,-1,-5
412.405,-2,4,7,6
412.405,6,9,10,12
412.406,9,5,8,14
412.406,11,2,4,11
412.407,11,5,7,10
412.408,8,4,5,7
412.408,7,4,1,-1
412.409,0,0,-2,-4
412.409,-2,-2,-5,-4
412.41,1,3,0,3
412.41,7,5,2,6
412.411,9,6,1,4
412.412,7,5,2,6
412.412,8,6,4,8
412.413,11,9,7,11
412.413,13,9,4,6
412.414,9,4,0,2
412.414,4,-1,-6,-2
412.415,0,-4,-7,-6
412.416,-4,-4,-6,-10
412.416,-9,-3,0,-3
412.417,-9,-6,-3,-8
412.417,-10,-3,0,-7
412.418,-9,2,4,-5
412.418,-7,0,-3,-12
412.419,-7,0,-4,-9
412.42,-1,10,9,9
412.42,14,16,15,16
412.421,17,17,17,18
412.421,18,17,17,18
412.422,16,13,12,11
412.423,9,9,11,10
412.423,8,6,6,8
412.424,7,3,2,5
412.424,5,0,0,1
412.425,0,-2,-3,-2
412.425,-4,-6,-5,-5
412.426,-8,-9,-6,-3
412.426,-4,-6,-4,0
412.427,2,0,-3,-2
412.428,0,0,-2,-3
412.428,0,0,-2,-5
412.429,-2,0,1,-1
412.429,1,9,15,16
412.43,13,15,18,20
412.431,19,15,13,15
412.431,17,13,7,6
412.432,8,5,-2,-11
412.432,-11,-5,-6,-14
412.433,-14,-4,-4,-12
412.433,-8,6,8,0
412.434,1,9,8,-1
412.435,-1,4,0,-5
412.435,2,8,3,-1
412.436,4,13,12,10
412.436,10,6,2,4
412.437,5,2,0,1
412.437,4,7,9,10
412.438,8,7,7,4
412.439,0,-4,-4,-7
412.439,-10,-11,-13,-16
412.44,-14,-9,-9,-12
412.44,-6,2,2,-1
412.441,3,10,10,11
412.441,13,11,8,14
412.442,17,11,8,16
412.443,16,9,9,16
412.443,12,3,5,12
412.444,5,-4,0,10
412.444,5,-5,-2,9
412.445,9,0,1,10
412.445,7,-3,-2,5
412.446,3,-4,-3,5
412.447,4,-5,-6,0
412.447,0,-10,-12,-4
412.448,-6,-16,-16,-4
412.448,-2,-10,-10,0
412.449,5,3,5,8
412.45,10,7,7,8
412.45,7,2,-2,-4
412.451,1,5,2,2
412.451,13,19,14,7
412.452,14,20,12,0
412.452,5,18,13,-2
412.453,0,13,6,-6
412.453,0,15,11,-1
412.454,4,18,13,1
412.455,4,14,12,6
412.455,4,3,0,0
412.456,0,-1,-9,-13
412.456,-8,-1,-4,-8
412.457,-4,3,2,-1
412.457,-1,3,3,-6
412.458,-10,0,3,-7
412.459,-10,2,7,-2
412.459,-5,4,9,2
412.46,-3,-3,0,0
412.46,-5,-10,-6,3
412.461,4,-4,-3,11
412.462,18,9,6,18
412.462,25,18,11,16
412.463,18,8,3,9
412.463,8,0,-3,4
412.464,6,-1,0,11
412.464,12,-1,-2,12
412.465,11,-6,-14,-2
412.466,1,-13,-19,-6
412.466,0,-10,-11,0
412.467,4,-2,1,14
412.467,14,5,6,16
412.468,16,7,4,2
412.468,3,5,4,-1
412.469,0,11,14,4
412.47,4,20,22,7
412.47,5,19,20,7
412.471,7,18,15,0
412.471,-4,7,3,-14
412.472,-17,-4,-7,-23
412.472,-21,-4,-2,-13
412.473,-9,4,6,-1
412.474,1,9,7,0
412.474,1,9,8,0
412.475,-2,5,7,2
412.475,-1,0,-2,-10
412.476,-13,-9,-6,-7
412.476,-7,-5,0,6
412.477,6,2,5,12
412.478,13,6,5,13
412.478,12,4,2,8
412.479,9,1,-1,2
412.479,3,2,2,5
412.48,9,9,6,6
412.481,8,8,5,2
412.481,5,5,4,6
412.482,7,1,-2,1
412.482,2,-3,-3,2
412.483,2,-1,0,6
412.483,9,4,0,1
412.484,2,3,0,-2
412.485,-1,1,-1,-3
412.485,0,1,1,3
412.486,6,3,1,10
412.486,14,7,5,15
412.487,16,5,1,8
412.487,4,-7,-10,-3
412.488,-4,-10,-8,2
412.489,4,-1,3,18
412.489,19,5,2,15
412.49,17,5,0,8
412.49,10,4,3,10
412.491,12,12,11,11
412.491,11,12,6,-4
412.492,-6,2,-2,-22
412.493,-22,-3,-1,-16
412.493,-14,0,2,-6
412.494,-3,2,-2,-11
412.494,-6,3,3,-3
412.495,1,10,11,6
412.495,7,12,11,6
412.496,7,7,4,2
412.497,4,6,6,7
412.497,9,8,5,5
412.498,5,3,1,0
412.498,-2,-2,-4,-6
412.499,-3,-2,-4,-6
412.499,-4,-1,-2,0
412.5,2,1,3,10
412.501,11,6,6,11
412.501,8,3,5,5
412.502,1,-2,0,0
412.502,-1,-2,1,4
412.503,1,0,3,9
412.503,9,7,10,15
412.504,14,11,12,17
412.505,16,9,10,18
412.505,16,5,2,3
412.506,0,-6,-12,-13
412.506,-14,-16,-17,-18
412.507,-14,-12,-10,-6
412.507,-4,-5,-2,5
412.508,9,4,4,13
412.509,18,12,6,11
412.509,14,10,2,-1
412.51,2,9,7,0
412.51,3,14,14,5
412.511,5,13,11,2
412.512,3,9,9,4
412.512,5,8,9,11
412.513,12,8,1,-1
412.513,0,-5,-11,-15
412.514,-13,-14,-19,-20
412.514,-16,-14,-17,-18
412.515,-8,0,-1,-2
412.516,6,17,18,17
412.516,19,19,16,14
412.517,11,6,2,3
412.517,1,-3,-9,-14
412.518,-12,-3,-7,-20
412.518,-16,4,7,-6
412.519,-1,19,21,10
412.52,14,29,33,26
412.52,27,33,33,26
412.521,26,35,36,24
412.521,18,24,26,19
412.522,6,-3,-3,-3
412.522,-11,-24,-22,-13
412.523,-17,-32,-36,-29
412.524,-30,-39,-40,-33
412.524,-31,-30,-27,-20
412.525,-12,-8,-4,-1
412.525,4,8,11,17
412.526,17,15,16,20
412.526,22,18,15,20
412.527,22,14,10,16
412.528,22,12,3,10
412.528,16,9,2,7
412.529,12,10,11,15
412.529,12,8,10,11
412.53,5,0,1,0
412.531,-1,0,0,-1
412.531,-2,-1,0,-3
412.532,-4,-2,-3,-6
412.532,-3,1,-1,-5
412.533,-1,5,2,-3
412.533,0,7,5,0
412.534,4,11,7,-1
412.535,0,7,4,-6
412.535,-5,2,2,-5
412.536,-5,0,0,-4
412.536,-4,-2,-4,-5
412.537,-4,-3,-1,0
412.537,1,2,5,7
412.538,5,6,10,11
412.538,10,6,11,17
412.539,14,5,6,17
412.54,14,2,0,10
412.54,9,-3,-7,-1
412.541,1,-3,-7,-6
412.541,-3,0,0,0
412.542,0,2,1,0
412.542,2,3,3,3
412.543,5,7,6,5
412.544,10,11,8,9
412.544,12,10,6,5
412.545,7,3,-3,-3
412.545,-3,-7,-6,-2
412.546,-3,-7,-5,0
412.547,-1,-5,-2,3
412.547,1,-4,1,11
412.548,9,2,6,15
412.548,14,6,7,13
412.549,14,10,9,10
412.549,10,7,5,4
412.55,4,1,-3,-5
412.551,0,2,-3,-9
412.551,-3,8,3,-7
412.552,-1,13,10,0
412.552,3,12,9,4
412.553,6,5,2,1
412.553,6,9,8,10
412.554,12,9,1,-4
412.555,-4,-1,-6,-14
412.555,-11,-2,0,-7
412.556,-6,0,1,-3
412.556,-3,2,3,2
412.557,2,6,8,7
412.557,8,8,8,5
412.558,4,3,3,0
412.559,-2,-1,0,0
412.559,-1,-4,-4,-2
412.56,0,-3,-6,-4
412.56,0,1,2,6
412.561,11,9,7,12
412.561,14,4,0,5
412.562,7,0,-2,5
412.563,7,2,2,7
412.563,8,4,3,7
412.564,9,8,7,7
412.564,7,8,7,1
412.565,-2,0,0,-6
412.565,-9,-5,0,0
412.566,-1,0,4,7
412.567,5,0,0,2
412.567,0,-7,-5,1
412.568,4,0,0,4
412.568,6,6,4,3
412.569,6,8,9,7
412.569,10,12,10,10
412.57,14,15,11,8
412.571,9,7,3,1
412.571,3,2,-2,-5
412.572,-3,1,0,-5
412.572,-3,3,1,-6
412.573,-3,8,7,0
412.574,1,11,10,2
412.574,3,8,6,0
412.575,0,1,0,-3
412.575,-2,0,-2,-1
412.576,-1,-3,-1,2
412.576,1,-4,-5,0
412.577,2,0,0,3
412.578,5,5,9,14
412.578,15,11,12,19
412.579,17,8,0,0
412.579,1,-3,-13,-24
412.58,-20,-11,-14,-27
412.58,-22,-4,-2,-13
412.581,-11,4,8,3
412.582,7,16,19,18
412.582,20,22,21,19
412.583,21,22,19,18
412.583,17,11,4,2
412.584,1,0,-1,0
412.584,-1,-3,0,5
412.585,3,-2,0,8
412.586,7,-1,0,11
412.586,10,0,-1,8
412.587,7,-4,-5,3
412.587,2,-10,-11,-2
412.588,1,-4,-4,1
412.588,4,1,0,2
412.589,6,7,2,-2
412.59,1,4,-3,-11
412.59,-7,1,2,2
412.591,5,9,13,19
412.591,19,14,12,14
412.592,12,6,3,1
412.593,1,1,0,-5
412.593,-4,0,0,-7
412.594,-3,6,4,-5
412.594,-2,8,5,-7
412.595,-6,8,4,-13
412.595,-11,6,6,-8
412.596,-7,5,7,0
412.597,0,7,10,9
412.597,7,6,9,13
412.598,9,2,0,1
412.598,0,-5,-5,-3
412.599,-3,-5,-2,4
412.599,6,2,2,9
412.6,10,7,3,5
412.601,6,1,-1,0
412.601,0,-1,0,3
412.602,4,3,3,5
412.602,7,5,4,6
412.603,9,4,1,7
412.603,9,3,2,8
412.604,9,2,2,7
412.604,6,0,0,6
412.605,3,-7,-6,2
412.606,1,-8,-7,3
412.606,5,-2,0,9
412.607,9,0,1,11
412.607,10,0,0,5
412.608,4,0,-4,-4
412.609,-2,0,-3,-5
412.609,0,6,6,2
412.61,7,15,15,11
412.61,14,17,12,8
412.611,10,12,3,-6
412.611,-3,4,0,-10
412.612,-6,5,4,-4
412.613,-1,8,7,-2
412.613,-1,10,7,-2
412.614,0,12,10,-3
412.614,-2,8,5,-4
412.615,-3,5,4,-2
412.615,-1,3,3,0
412.616,-1,0,0,-1
412.617,-1,0,-1,-1
412.617,-1,0,1,3
412.618,3,1,1,5
412.618,6,2,1,4
412.619,4,0,0,4
412.619,4,0,0,8
412.62,7,0,0,8
412.621,9,2,0,7
412.621,9,3,2,7
412.622,7,3,0,0
412.622,0,-2,0,1
412.623,0,1,4,10
412.624,10,8,9,13
412.624,13,11,9,6
412.625,4,2,2,3
412.625,1,-2,-1,1
412.626,3,-1,-7,-6
412.626,-4,-6,-13,-18
412.627,-12,-6,-8,-10
412.628,-3,4,9,15
412.628,18,14,15,24
412.629,22,10,7,14
412.629,15,6,0,0
412.63,0,0,-2,-7
412.631,-6,0,0,-2
412.631,0,2,-1,-6
412.632,-3,3,1,-5
412.632,0,11,15,11
412.633,12,16,16,11
412.633,9,10,5,-3
412.634,-5,1,3,0
412.634,0,4,6,6
412.635,6,7,1,-5
412.636,-3,3,-2,-13
412.636,-9,3,0,-10
412.637,-5,2,0,-7
412.637,-6,0,4,7
412.638,5,2,2,9
412.638,10,5,3,3
412.639,4,6,7,3
412.64,1,0,0,0
412.64,-2,-6,-7,-1
412.641,1,-4,-5,3
412.641,7,2,3,11
412.642,11,5,2,5
412.642,7,7,6,8
412.643,10,11,10,12
412.644,13,8,5,7
412.644,7,2,0,1
412.645,2,-1,-2,2
412.645,1,-5,-5,2
412.646,2,-4,-5,2
412.647,4,-1,-1,6
412.647,8,4,5,12
412.648,12,8,9,13
412.648,10,2,0,3
412.649,3,0,-4,-4
412.649,-3,-1,-2,-5
412.65,-3,2,4,1
412.651,2,7,6,3
412.651,4,9,7,2
412.652,3,8,5,0
412.652,2,6,2,-5
412.653,-3,5,3,-3
412.653,-1,7,6,-1
412.654,0,7,6,-1
412.654,0,7,5,-1
412.655,-1,5,4,-2
412.656,-1,3,2,0
412.656,0,3,3,0
412.657,1,4,3,0
412.657,1,2,2,1
412.658,1,2,3,2
412.659,1,1,0,1
412.659,2,1,0,2
412.66,4,4,3,5
412.66,6,5,4,5
412.661,6,3,1,3
412.661,4,1,0,2
412.662,4,1,1,4
412.663,5,1,0,4
412.663,5,1,0,5
412.664,6,3,3,6
412.664,6,1,1,3
412.665,1,-3,-1,2
412.665,0,-4,-2,3
412.666,2,-1,0,5
412.667,5,1,4,10
412.667,9,3,3,9
412.668,9,4,2,4
412.668,5,4,3,6
412.669,8,7,4,4
412.669,5,3,0,0
412.67,4,3,0,-2
412.671,1,5,1,0
412.671,2,8,6,2
412.672,5,11,8,-2
412.672,-1,7,6,-4
412.674,-5,3,4,-2
412.674,0,7,8,1
412.674,1,5,1,-5
412.675,-3,2,0,-7
412.675,-2,3,0,-4
412.676,0,4,2,-1
412.676,0,2,2,2
412.677,3,4,3,1
412.677,1,3,3,2
412.678,1,2,4,5
412.679,4,2,2,3
412.679,3,3,2,4
412.68,5,3,1,4
412.68,5,4,4,5
412.681,6,4,3,4
412.682,4,2,1,3
412.682,3,0,0,4
412.683,5,2,1,5
412.683,5,1,0,4
412.684,6,3,1,4
412.684,4,0,1,6
412.685,5,-2,-2,5
412.685,5,-4,-8,-1
412.686,2,-2,-4,0
412.687,5,1,-1,2
412.687,5,5,5,9
412.688,11,9,10,13
412.688,13,12,16,17
412.689,11,6,6,6
412.69,2,-1,-2,-4
412.69,-4,-3,-2,-5
412.691,-5,0,0,-3
412.691,-2,4,3,-1
412.692,2,10,9,0
412.692,3,12,9,0
412.693,0,7,4,-5
412.694,-2,5,2,-7
412.694,-3,4,1,-6
412.695,-3,6,3,-3
412.695,0,6,3,-1
412.696,0,2,0,-3
412.696,-1,2,1,0
412.697,0,4,6,5
412.698,4,6,8,7
412.698,5,4,5,5
412.699,5,2,1,2
412.699,3,1,0,2
412.7,3,0,0,2
412.701,3,2,0,2
412.701,4,2,1,3
412.702,6,5,3,5
412.702,6,4,2,4
412.703,5,1,0,4
412.703,5,2,2,6
412.704,7,3,2,6
412.704,6,2,1,4
412.705,2,-3,-2,3
412.706,2,-4,-3,4
412.706,5,-1,0,5
412.707,6,0,1,7
412.707,7,3,3,7
412.708,7,4,3,6
412.708,5,4,2,2
412.709,2,3,3,2
412.71,2,5,6,3
412.71,4,7,7,4
412.711,4,7,3,-1
412.711,1,5,0,-7
412.712,-1,5,1,-5
412.712,0,6,3,-3
412.713,0,8,6,-1
412.714,1,8,6,0
412.714,0,5,4,-1
412.715,0,3,1,-2
412.715,0,2,1,0
412.716,0,4,4,1
412.716,3,8,5,1
412.717,2,5,3,0
412.718,1,2,0,0
412.718,1,1,0,0
412.719,1,2,0,0
412.719,2,3,3,3
412.72,4,4,4,5
412.721,4,1,2,3
412.721,1,1,3,6
412.722,4,2,5,7
412.722,5,2,3,6
412.723,5,1,1,4
412.723,5,2,0,3
412.724,4,1,0,2
412.725,2,-1,-1,4
412.725,2,-3,0,7
412.726,6,0,2,11
412.726,9,0,2,8
412.727,7,0,-1,5
412.727,5,0,-1,2
412.728,4,2,2,6
412.729,7,3,1,3
412.729,7,6,2,2
412.73,6,8,5,2
412.73,5,8,7,2
412.731,2,7,5,0
412.732,0,6,2,-4
412.732,-1,6,4,-2
412.733,-2,3,1,-5
412.733,-1,8,7,0
412.734,0,8,7,0
412.734,0,5,2,-3
412.735,-3,2,1,-3
412.735,-3,0,-1,-4
412.736,-3,-2,-2,-4
412.737,-3,-1,-3,-3
412.737,0,4,5,5
412.738,7,8,9,10
412.738,8,6,2,3
412.739,6,6,3,4
412.74,7,8,6,7
412.74,6,6,7,7
412.741,5,6,10,9
412.741,4,2,4,3
412.742,-2,-4,-3,-2
412.742,-2,-4,-3,0
412.743,0,-1,1,4
412.743,3,0,2,7
412.744,4,-1,-2,4
412.745,5,-3,-7,1
412.745,6,-2,-12,-4
412.746,6,0,-10,-1
412.746,10,4,-6,2
412.747,14,5,-6,0
412.747,13,5,-7,1
412.748,17,14,5,10
412.749,21,23,18,16
412.749,17,20,20,15
412.75,11,13,13,7
412.75,4,7,8,0
412.751,-3,3,4,-4
412.752,-9,0,3,-7
412.752,-11,0,7,-3
412.753,-10,1,13,3
412.753,-4,3,11,0
412.754,-9,-4,-1,-9
412.754,-15,-9,-4,-9
412.755,-15,-8,0,-3
412.756,-7,-5,0,0
412.756,0,1,0,0
412.757,4,8,6,4
412.757,4,6,7,4
412.758,1,1,2,2
412.759,2,4,5,6
412.759,7,7,8,7
412.76,7,6,4,4
412.76,5,1,0,0
412.761,3,-1,-8,-3
412.761,6,1,-11,-4
412.762,11,8,-7,-3
412.763,14,12,-1,2
412.763,15,13,5,8
412.764,16,13,7,11
412.764,13,8,7,11
412.765,11,6,9,15
412.765,9,2,9,14
412.766,3,-2,9,13
412.767,-2,-7,6,10
412.767,-4,-11,0,5
412.768,-4,-11,-5,0
412.768,-3,-7,-6,-4
412.769,-4,-4,-6,-6
412.769,-5,-6,-11,-10
412.77,-2,0,-6,-6
412.771,6,14,8,4
412.771,12,21,18,8
412.772,10,20,20,8
412.772,3,13,16,5
412.773,-1,4,8,0
412.773,-4,1,1,-7
412.774,-9,-3,-6,-12
412.775,-10,-3,-5,-9
412.775,-6,-4,-8,-8
412.776,0,0,-5,-1
412.776,11,9,-3,0
412.777,15,8,-14,-10
412.777,14,14,-5,-1
412.778,21,21,4,6
412.779,23,25,15,14
412.779,21,24,25,21
412.78,13,12,17,12
412.78,0,-1,10,7
412.781,-9,-11,3,3
412.781,-11,-14,-3,0
412.782,-8,-9,-2,0
412.783,-4,-5,-1,0
412.783,-4,-10,-12,-8
412.784,-7,-8,-7,-1
412.784,-1,-1,4,7
412.785,1,-3,2,7
412.785,1,-2,7,14
412.786,7,2,13,18
412.787,10,2,6,12
412.787,8,0,-1,3
412.788,5,0,-3,0
412.788,6,5,-2,-1
412.789,10,9,-7,-6
412.789,10,12,-5,-8
412.79,9,14,0,-4
412.791,9,16,8,3
412.791,10,16,13,7
412.792,10,16,12,5
412.792,6,11,6,0
412.793,0,6,6,-2
412.793,-5,0,2,-4
412.794,-8,-2,1,-1
412.795,-5,-1,3,-1
412.795,-5,-2,1,-2
412.796,-5,-3,-3,-5
412.796,-5,-3,-4,-5
412.797,-3,-2,-4,-3
412.797,2,3,2,3
412.798,8,10,9,9
412.799,10,10,9,9
412.799,7,7,10,10
412.8,5,4,10,11
412.8,3,2,8,9
412.801,3,3,12,12
412.802,3,3,13,10
412.802,-2,-5,3,2
412.803,-8,-12,-7,-5
412.803,-8,-10,-10,-5
412.804,-3,-4,-7,-3
412.804,0,-5,-8,-1
412.805,3,-5,-11,0
412.806,10,0,-9,3
412.806,17,9,-1,8
412.807,19,14,6,12
412.807,19,14,8,10
412.808,13,11,6,8
412.808,12,13,11,11
412.809,11,12,10,7
412.81,7,9,8,3
412.81,0,2,2,-3
412.811,-6,-2,-1,-8
412.811,-9,0,2,-4
412.812,-6,0,2,-3
412.812,-4,1,0,-7
412.813,-5,4,2,-6
412.814,-5,4,3,-5
412.814,-2,6,4,-3
412.815,0,6,4,-1
412.815,0,6,2,-2
412.816,1,8,4,-1
412.816,1,6,2,-2
412.817,1,5,2,0
412.818,5,7,4,5
412.818,7,7,5,7
412.819,7,5,5,5
412.819,5,3,2,4
412.82,5,3,1,3
412.821,5,1,0,2
412.821,4,1,0,3
412.822,5,2,1,5
412.822,5,4,5,8
412.823,5,2,4,6
412.823,3,0,1,3
412.824,0,-3,-4,0
412.825,-1,-5,-6,0
412.825,1,-3,-2,4
412.826,6,0,0,7
412.826,8,3,4,10
412.827,8,5,10,14
412.827,8,4,10,13
412.828,6,2,6,8
412.829,3,3,8,6
412.829,1,2,5,2
412.83,-3,-1,3,0
412.83,-4,-1,0,-2
412.831,-4,1,2,-2
412.831,-1,4,3,-3
412.832,-3,1,-2,-8
412.833,-4,0,-7,-11
412.833,-3,4,-4,-8
412.834,3,11,1,-2
412.834,9,14,2,-2
412.835,9,11,-1,-4
412.835,7,11,-1,-2
412.836,9,13,3,3
412.837,12,14,6,5
412.837,12,12,6,5
412.838,9,11,10,8
412.838,6,6,7,6
412.839,3,0,0,1
412.839,0,-1,0,0
412.84,-1,-2,2,3
412.841,-2,-4,0,4
412.841,0,-1,2,4
412.842,1,1,8,10
412.842,3,1,6,6
412.843,0,-4,-2,0
412.844,-3,-6,-6,-3
412.844,-1,-4,-4,0
412.845,3,-1,-2,3
412.845,6,-1,-3,3
412.846,7,1,0,7
412.846,8,2,2,10
412.847,10,5,6,11
412.848,9,8,18,21
412.848,9,6,18,19
412.849,5,-1,2,4
412.849,0,-5,-6,-5
412.85,-2,-4,-8,-8
412.85,0,0,-7,-10
412.851,-1,2,-7,-10
412.851,3,8,-3,-8
412.852,7,13,0,-5
412.853,11,21,11,3
412.853,12,21,13,4
412.854,8,16,12,2
412.854,4,13,12,2
412.855,1,8,10,1
412.855,-3,0,4,-1
412.856,-8,-3,3,-1
412.857,-8,-5,2,0
412.857,-6,-7,-1,-1
412.858,-3,-3,-2,-1
412.858,0,0,0,0
412.859,0,1,3,5
412.859,2,2,6,8
412.86,4,2,5,8
412.861,4,3,6,7
412.861,4,2,6,7
412.862,2,0,5,6
412.862,0,-4,-4,0
412.863,0,-5,-11,-4
412.864,4,0,-8,-2
412.864,9,4,-4,0
412.865,9,5,-1,4
412.865,11,4,-2,5
412.866,12,6,0,9
412.866,15,11,8,14
412.867,16,11,11,13
412.868,10,4,3,5
412.868,4,1,1,3
412.869,2,1,1,3
412.869,3,1,0,0
412.87,1,1,-2,-4
412.87,1,3,-1,-4
412.871,0,4,2,-2
412.872,2,9,6,1
412.872,3,12,9,0
412.873,0,6,4,-4
412.873,-5,2,3,-3
412.874,-4,2,5,0
412.875,-2,4,6,1
412.875,-1,2,4,1
412.876,-1,1,1,0
412.876,-2,0,2,0
412.877,0,2,4,4
412.877,3,4,5,5
412.878,4,3,1,0
412.879,0,0,0,0
412.879,0,0,2,3
412.88,2,1,1,3
412.88,4,2,0,4
412.881,7,5,2,4
412.881,7,3,-1,1
412.882,5,2,0,2
412.882,5,3,1,4
412.883,7,5,4,5
412.884,6,4,5,7
412.884,5,0,3,9
412.885,4,-2,-1,5
412.885,3,-4,-4,3
412.886,4,1,3,8
412.887,7,5,12,14
412.887,7,1,2,6
412.888,4,0,-3,0
412.888,3,1,-1,0
412.889,2,2,0,0
412.889,1,2,1,0
412.89,2,5,4,1
412.891,4,10,7,2
412.891,4,9,6,-1
412.892,0,7,2,-5
412.892,-1,5,0,-6
412.893,-1,5,2,-3
412.893,0,8,4,-1
412.894,1,7,3,-2
412.895,0,4,1,-4
412.895,-2,1,0,-3
412.896,-2,3,5,2
412.896,1,6,10,6
412.897,3,4,6,3
412.897,2,2,1,1
412.898,0,1,1,1
412.899,2,2,3,4
412.899,4,4,2,4
412.9,6,4,2,3
412.9,4,2,1,3
412.901,3,0,0,3
412.901,4,1,0,3
412.902,5,1,0,3
412.903,5,2,0,4
412.903,6,4,1,3
412.904,5,2,0,2
412.904,4,0,-2,3
412.905,5,1,0,6
412.905,8,3,2,7
412.906,7,4,5,10
412.907,7,5,11,13
412.907,4,0,5,7
412.908,1,-1,1,3
412.908,0,0,1,1
412.909,0,-1,-3,-4
412.91,-2,-2,-3,-4
412.91,0,2,-1,-2
412.911,3,7,1,-2
412.911,6,10,3,-2
412.912,5,11,3,-3
412.912,4,11,6,0
412.913,4,11,8,0
412.914,3,10,8,1
412.914,3,8,6,0
412.915,0,2,1,-2
412.915,-1,0,0,-1
412.916,-1,-1,0,-1
412.916,0,2,3,3
412.917,3,7,12,10
412.918,4,5,10,8
412.918,0,-1,2,2
412.919,-1,-4,-1,0
412.919,0,-3,-4,0
412.92,0,-3,-7,-3
412.92,1,-2,-8,-3
412.921,3,-1,-10,-3
412.922,8,5,-1,3
412.922,14,17,19,19
412.923,17,15,17,16
412.923,11,7,6,6
412.924,4,1,0,1
412.924,0,-3,-2,0
412.925,0,-6,-4,1
412.926,0,-5,-3,3
412.926,2,-3,0,7
412.927,7,3,4,10
412.927,9,5,4,7
412.928,6,2,1,1
412.929,1,0,-2,-2
412.929,1,2,0,1
412.93,5,7,7,5
412.93,6,10,8,3
412.931,3,7,4,-1
412.931,0,5,4,-3
412.932,0,6,5,-1
412.932,0,7,4,-2
412.933,-1,3,-1,-7
412.934,-2,3,0,-6
412.934,-3,4,2,-2
412.935,-1,4,4,0
412.935,2,5,6,4
412.936,5,6,3,1
412.936,1,2,-1,-2
412.937,0,1,0,0
412.938,4,5,3,5
412.938,7,7,7,8
412.939,7,8,12,10
412.939,4,2,6,6
412.94,0,-3,-1,1
412.94,0,-1,0,3
412.941,2,0,1,3
412.942,2,0,-2,0
412.942,2,0,0,2
412.943,3,1,0,3
412.943,5,1,1,4
412.944,6,3,4,8
412.945,6,0,0,6
412.945,5,-2,-3,3
412.946,4,-1,-4,2
412.946,5,0,-4,3
412.947,8,3,-1,2
412.947,8,5,1,4
412.948,10,8,2,3
412.949,9,9,5,5
412.949,9,10,7,4
412.95,6,9,6,3
412.95,4,7,5,0
412.951,0,5,4,-1
412.951,-2,4,5,-1
412.952,-3,4,5,-2
412.953,-3,3,3,-4
412.953,-5,1,2,-4
412.954,-4,1,0,-4
412.954,-2,3,1,-3
412.955,-1,3,3,0
412.956,1,4,6,3
412.956,2,4,3,1
412.957,3,0,-3,-2
412.957,3,2,-1,0
412.958,4,5,3,4
412.958,5,5,5,6
412.959,6,4,5,6
412.96,7,5,6,7
412.96,7,3,2,4
412.961,4,1,-1,0
412.961,1,0,-4,0
412.962,1,0,-1,1
412.962,6,3,4,7
412.963,8,5,4,7
412.964,7,3,2,5
412.964,2,-1,0,3
412.965,0,-3,0,5
412.965,4,0,1,7
412.966,6,0,1,6
412.966,5,0,0,3
412.967,4,0,0,3
412.967,4,2,0,2
412.968,5,4,2,3
412.969,7,8,5,3
412.969,6,7,4,1
412.97,3,6,5,0
412.97,2,8,7,2
412.971,2,7,5,0
412.971,2,8,5,0
412.972,0,5,2,-3
412.973,-1,5,2,-4
412.973,-4,2,0,-5
412.974,-3,2,3,-2
412.974,-2,6,12,5
412.975,-1,3,10,5
412.976,-2,0,1,-1
412.976,-3,-3,-4,-5
412.977,-3,-2,-5,-4
412.977,1,1,-2,0
412.978,6,6,2,4
412.978,9,9,4,6
412.979,11,9,5,7
412.98,11,10,6,7
412.98,9,6,3,3
412.981,4,2,1,2
412.981,3,1,1,4
412.982,4,1,0,3
412.982,5,1,0,2
412.983,5,2,0,2
412.984,3,0,0,3
412.984,2,-2,0,5
412.985,5,0,2,8
412.985,7,1,1,7
412.986,5,0,0,6
412.986,4,-1,-2,2
412.987,3,-1,-2,1
412.988,5,3,3,6
412.988,8,8,6,6
412.989,5,4,3,1
412.989,1,2,2,0
412.99,2,5,4,0
412.99,2,6,3,-2
412.991,0,6,1,-3
412.992,0,7,3,-3
412.992,0,6,3,-4
412.993,0,8,6,0
412.993,1,9,8,1
412.994,1,7,7,0
412.994,-1,2,3,-1
412.995,-2,0,2,0
412.996,-1,1,3,1
412.996,0,0,1,0
412.997,0,0,0,0
412.997,1,2,1,1
412.998,4,3,2,2
412.999,5,4,3,4
412.999,5,4,3,4
413,4,1,0,1
413,4,4,5,6
413.001,5,6,10,11
413.001,6,2,1,5
413.002,4,0,-1,2
413.003,3,0,0,2
413.003,2,-1,-2,0
413.004,1,-1,0,3
413.004,3,-2,-2,4
413.005,5,-1,-2,3
413.005,7,6,9,14
413.006,9,4,10,13
413.007,7,0,2,5
413.007,3,0,-2,1
413.008,3,1,-2,-1
413.008,1,0,-2,-2
413.009,1,3,1,0
413.009,3,7,7,4
413.01,6,9,8,3
413.011,6,11,8,1
413.011,2,9,6,-2
413.012,-1,3,1,-6
413.012,-4,2,0,-7
413.013,-2,3,0,-6
413.013,-2,4,1,-4
413.014,0,4,1,-3
413.015,-1,4,3,0
413.015,2,7,7,5
413.016,5,8,7,5
413.016,4,2,0,-1
413.017,0,-1,-7,-6
413.017,2,2,-2,-1
413.018,6,9,8,10
413.019,12,10,10,10
413.019,9,7,7,7
413.02,5,2,2,3
413.02,2,0,1,3
413.021,0,-1,3,5
413.022,0,-2,1,4
413.022,0,-1,0,3
413.023,2,0,-1,2
413.023,3,0,-1,1
413.024,1,-3,-4,0
413.024,3,-2,-4,3
413.025,6,1,1,7
413.026,9,4,5,10
413.026,10,4,4,10
413.027,9,4,3,7
413.027,6,3,1,5
413.028,6,4,3,3
413.028,4,5,3,1
413.029,3,4,2,0
413.03,1,3,0,-2
413.03,1,6,2,-2
413.031,1,7,4,-1
413.031,1,7,4,-2
413.032,0,7,6,-1
413.032,-1,6,6,-1
413.033,-2,3,5,-1
413.034,-3,2,4,-1
413.034,-1,4,5,0
413.035,-1,2,3,0
413.035,0,1,0,-1
413.036,0,0,-1,-1
413.036,1,2,-1,0
413.037,4,4,2,2
413.038,6,6,4,5
413.038,6,6,5,6
413.039,5,4,4,5
413.039,5,4,4,5
413.04,5,2,1,4
413.04,4,0,-1,1
413.041,3,0,-1,1
413.042,4,1,0,3
413.042,6,3,2,5
413.043,5,3,2,5
413.043,5,2,2,5
413.044,4,0,0,5
413.044,4,-1,0,5
413.045,5,0,0,5
413.046,4,-1,0,5
413.046,6,0,1,6
413.047,6,3,2,5
413.047,6,3,2,3
413.048,4,4,3,2
413.048,5,4,2,0
413.049,3,4,0,-1
413.05,2,5,3,0
413.05,1,8,7,1
413.051,2,9,9,1
413.051,2,8,6,0
413.052,0,6,4,-1
413.052,0,4,1,-3
413.053,-2,2,0,-3
413.054,-1,2,1,-3
413.054,-1,2,1,-3
413.055,-2,1,1,-1
413.055,0,3,2,0
413.056,0,4,4,1
413.056,2,6,5,2
413.057,3,6,5,2
413.058,3,5,4,2
413.058,3,4,3,4
413.059,5,3,2,4
413.059,5,2,1,3
413.06,4,1,0,4
413.061,6,2,0,4
413.061,6,4,4,6
413.062,6,3,4,6
413.062,4,0,0,2
413.063,2,0,0,4
413.063,3,0,2,5
413.064,2,-2,0,4
413.065,1,-3,0,5
413.065,3,0,3,8
413.066,4,0,2,9
413.066,6,0,1,7
413.067,6,0,-1,2
413.067,4,1,-1,0
413.068,3,2,0,0
413.069,5,4,0,0
413.069,7,8,3,2
413.07,7,9,2,0
413.07,6,9,1,-3
413.071,4,12,9,1
413.072,3,12,12,4
413.072,1,7,6,0
413.073,0,4,3,-3
413.073,-3,2,0,-5
413.074,-4,1,0,-5
413.074,-4,1,1,-1
413.075,-1,2,2,0
413.076,0,2,1,0
413.076,2,2,0,0
413.077,2,2,0,0
413.077,3,3,1,2
413.078,4,5,5,6
413.078,7,7,8,8
413.079,7,8,12,10
413.08,4,3,9,9
413.08,1,-3,-1,1
413.081,-1,-5,-4,-1
413.081,0,-1,-2,1
413.082,3,0,-2,0
413.082,4,0,-2,0
413.083,3,0,-4,0
413.084,5,3,0,6
413.084,9,6,9,14
413.085,11,5,6,11
413.085,8,1,1,6
413.086,5,0,0,5
413.086,5,0,0,4
413.087,5,2,1,3
413.088,3,2,1,1
413.088,2,2,1,0
413.089,2,3,1,0
413.089,4,4,1,0
413.09,4,7,0,-3
413.09,2,9,5,-1
413.091,2,10,9,1
413.092,2,8,7,0
413.092,0,7,5,-2
413.093,0,5,4,-2
413.093,-2,3,1,-4
413.094,-2,3,0,-3
413.094,-1,3,2,-1
413.095,0,3,2,0
413.096,0,3,3,1
413.096,1,2,3,2
413.097,2,2,4,5
413.097,3,3,4,5
413.098,4,2,2,3
413.098,3,1,0,2
413.099,3,1,0,2
413.1,4,2,1,4
413.1,7,4,2,4
413.101,7,4,3,5
413.101,5,3,1,2
413.102,3,0,-1,1
413.102,3,0,0,1
413.103,3,2,1,4
413.104,4,0,0,4
413.104,4,-1,-1,5
413.105,5,0,-1,5
413.105,6,1,1,7
413.106,8,2,2,7
413.106,8,3,3,6
413.107,7,4,3,6
413.108,6,4,3,5
413.108,5,5,3,2
413.109,2,3,2,0
413.109,2,3,2,0
413.11,1,5,4,0
413.11,1,6,4,-2
413.111,0,6,4,-3
413.112,-1,5,4,-3
413.112,-1,7,5,-2
413.113,-1,4,1,-4
413.113,-1,4,1,-3
413.114,0,5,3,0
413.115,1,5,3,1
413.115,3,4,3,0
413.116,2,3,3,1
413.116,2,2,2,2
413.117,3,3,3,3
413.117,3,3,3,3
413.118,2,3,4,5
413.119,3,2,4,6
413.119,3,0,0,1
413.12,2,-1,-3,0
413.12,1,1,1,3
413.121,3,2,2,5
413.121,5,2,2,5
413.122,6,4,4,8
413.123,8,6,5,6
413.123,6,2,2,5
413.124,2,-2,-1,2
413.124,2,-2,-2,2
413.125,3,0,-1,5
413.125,5,0,-2,3
413.126,6,1,-1,3
413.127,6,2,0,4
413.127,7,5,3,6
413.128,9,9,9,9
413.128,7,9,9,7
413.129,4,3,2,0
413.13,0,3,2,0
413.13,0,3,0,-4
413.131,0,4,0,-6
413.131,-1,6,3,-3
413.132,0,6,3,-3
413.132,0,6,3,-3
413.133,0,7,3,-4
413.133,0,7,3,-2
413.134,0,5,2,0
413.135,1,4,1,0
413.135,3,5,5,5
413.136,4,7,10,9
413.136,3,2,4,4
413.137,1,1,2,2
413.137,0,1,4,4
413.138,2,1,1,0
413.139,0,-2,-2,-2
413.139,-1,-1,0,1
413.14,1,1,1,3
413.14,3,2,3,5
413.141,5,3,3,6
413.141,6,3,2,5
413.142,6,4,2,5
413.143,7,3,1,5
413.143,7,3,1,5
413.144,5,0,0,6
413.144,4,-1,0,6
413.145,5,-1,-2,3
413.146,4,-1,-2,3
413.146,6,1,0,4
413.147,7,3,0,3
413.147,7,4,0,2
413.148,7,7,5,5
413.148,7,7,3,2
413.149,3,5,3,0
413.15,3,6,4,0
413.15,2,8,7,0
413.151,2,8,4,-1
413.151,0,7,5,-2
413.152,-1,6,4,-3
413.152,-3,2,1,-4
413.153,-3,3,3,-3
413.154,-3,3,4,-1
413.154,-1,2,4,0
413.155,0,1,2,0
413.155,1,2,2,1
413.156,2,3,3,4
413.156,3,4,4,5
413.157,4,3,3,3
413.158,3,2,2,2
413.158,2,1,2,3
413.159,3,1,0,1
413.159,3,1,0,1
413.16,5,3,2,4
413.16,5,4,3,5
413.161,6,3,2,4
413.162,5,2,0,2
413.162,4,0,-3,0
413.163,4,2,0,3
413.163,5,3,4,8
413.164,6,1,3,9
413.164,5,-1,0,6
413.165,6,-1,0,6
413.166,5,-1,0,5
413.166,5,0,0,4
413.167,5,1,0,2
413.167,5,5,3,4
413.168,5,5,3,3
413.168,4,6,4,2
413.169,4,5,2,0
413.17,2,5,3,0
413.17,1,5,3,-1
413.171,1,7,4,-1
413.171,1,8,4,-2
413.172,0,7,2,-5
413.173,-2,4,1,-5
413.173,-1,5,3,-1
413.174,0,5,5,0
413.174,0,3,3,1
413.175,0,3,5,4
413.175,2,5,7,5
413.176,2,5,7,5
413.177,0,0,1,0
413.177,0,-1,-2,-2
413.178,0,1,0,0
413.178,1,3,0,0
413.179,3,1,0,1
413.179,5,2,-1,2
413.18,7,4,0,3
413.181,7,5,2,5
413.181,6,6,8,10
413.182,7,5,7,8
413.182,5,1,2,5
413.183,4,1,0,3
413.183,2,-1,0,3
413.184,1,-4,-4,2
413.185,2,-4,-5,1
413.185,4,-1,-4,2
413.186,7,3,1,6
413.186,10,5,2,6
413.187,9,6,5,6
413.187,8,7,6,5
413.188,6,6,7,6
413.189,6,9,12,9
413.189,4,8,12,6
413.19,0,2,3,-3
413.19,-6,-1,-2,-7
413.191,-5,1,0,-7
413.191,-4,3,3,-5
413.192,-4,3,4,-3
413.193,-3,2,3,-2
413.193,-2,3,1,-3
413.194,0,2,-1,-4
413.194,0,3,-1,-3
413.195,1,3,-1,-1
413.196,4,6,1,1
413.196,7,8,5,6
413.197,9,12,11,10
413.197,10,8,6,6
413.198,5,3,3,4
413.198,4,2,1,2
413.199,3,2,1,4
413.2,3,0,0,2
413.2,3,0,-1,0
413.201,1,0,-1,2
413.201,3,1,1,3
413.202,5,3,2,4
413.202,5,3,2,4
413.203,4,1,0,3
413.204,2,-1,0,4
413.204,4,0,1,7
413.205,6,2,2,7
413.205,6,0,0,5
413.206,5,0,-1,3
413.206,5,1,0,3
413.207,6,4,2,4
413.208,7,6,4,3
413.208,5,6,4,3
413.209,4,4,2,1
413.209,2,6,3,0
413.21,2,7,4,-1
413.21,0,7,4,-2
413.211,0,7,4,-3
413.212,0,5,3,-3
413.212,-1,6,4,-3
413.213,-1,5,3,-2
413.213,0,5,4,-2
413.214,-1,3,3,0
413.214,-1,2,2,0
413.215,0,3,2,1
413.216,1,4,4,2
413.216,1,3,5,5
413.217,4,2,2,2
413.217,3,0,-1,0
413.218,2,2,0,1
413.219,5,5,3,4
413.219,5,5,4,6
413.22,6,4,4,7
413.22,6,3,2,6
413.221,7,3,2,5
413.221,5,1,1,4
413.222,3,-1,-3,-2
413.223,0,-2,-5,-1
413.223,1,1,1,5
413.224,6,4,9,12
413.224,7,1,4,8
413.225,4,-1,0,3
413.225,1,-3,-2,2
413.226,2,0,0,4
413.227,4,2,2,5
413.227,5,3,3,4
413.228,6,6,6,6
413.228,6,6,7,6
413.229,5,5,4,2
413.229,3,6,4,-1
413.23,0,4,0,-4
413.231,0,5,0,-6
413.231,-1,6,2,-4
413.232,1,8,3,-4
413.232,1,7,0,-6
413.233,0,7,2,-3
413.233,1,8,6,1
413.234,2,7,7,2
413.235,1,5,7,2
413.235,0,1,3,0
413.236,-1,0,2,1
413.236,0,0,2,1
413.237,1,1,3,3
413.237,3,2,4,6
413.238,4,2,2,3
413.239,2,0,0,2
413.239,2,0,-1,1
413.24,4,0,-1,2
413.24,4,0,-3,0
413.241,5,1,-3,1
413.241,7,5,2,7
413.242,9,7,6,9
413.243,10,7,7,9
413.243,7,2,3,7
413.244,4,-1,-1,4
413.244,4,-1,-1,3
413.245,3,-1,0,4
413.245,2,-1,-1,3
413.246,4,1,1,5
413.247,6,2,2,5
413.247,5,3,1,2
413.248,4,4,2,2
413.248,4,4,1,0
413.249,3,6,2,0
413.249,5,9,6,1
413.25,4,9,5,0
413.251,1,8,5,-1
413.251,0,5,4,-3
413.252,-1,5,3,-3
413.252,-1,5,4,-3
413.253,-1,4,4,-2
413.253,-1,4,4,0
413.254,-1,3,3,0
413.255,-1,1,0,-1
413.255,0,1,1,0
413.256,1,3,1,1
413.256,3,3,2,2
413.257,3,4,3,4
413.258,5,4,4,6
413.258,6,4,3,5
413.259,5,4,3,6
413.259,4,2,3,5
413.26,4,2,3,4
413.26,2,0,0,2
413.261,1,0,0,2
413.262,3,0,-1,1
413.262,4,0,-6,-2
413.263,3,0,-6,-1
413.263,4,0,-3,3
413.264,10,3,0,8
413.264,11,5,3,9
413.265,11,5,2,8
413.266,11,7,8,13
413.266,10,10,16,17
413.267,7,2,7,7
413.267,1,-2,-1,0
413.268,-3,-3,-2,-3
413.268,-3,-1,-3,-4
413.269,-2,0,-1,-4
413.27,0,3,1,-2
413.27,2,8,7,0
413.271,3,10,8,0
413.271,1,9,7,0
413.272,0,8,8,0
413.272,0,6,4,-2
413.273,-2,2,2,-2
413.274,-1,3,3,-1
413.274,-2,1,2,0
413.275,-1,0,0,0
413.275,0,1,1,0
413.276,1,3,3,3
413.277,4,2,0,0
413.277,4,4,2,3
413.278,4,4,3,3
413.278,4,2,1,3
413.279,5,3,1,4
413.279,7,4,2,4
413.28,7,3,-2,0
413.281,5,2,-2,0
413.281,6,6,8,10
413.282,9,6,7,8
413.282,7,3,2,4
413.283,5,1,0,3
413.283,1,-1,-1,2
413.284,0,-3,-1,4
413.285,2,-3,-2,4
413.285,4,-1,-2,4
413.286,7,1,0,4
413.286,8,3,0,3
413.287,7,5,2,4
413.287,7,7,5,6
413.288,7,7,7,5
413.289,5,9,12,8
413.289,3,6,8,3
413.29,-1,0,0,-5
413.29,-5,0,0,-6
413.291,-5,3,2,-4
413.291,-2,4,2,-4
413.292,-2,5,2,-4
413.293,-1,5,2,-3
413.293,-1,5,2,-2
413.294,0,4,3,0
413.294,2,6,4,1
413.295,4,6,4,2
413.296,4,5,5,3
413.296,4,6,6,5
413.297,5,5,5,4
413.297,3,2,2,2
413.298,2,1,1,3
413.298,2,2,6,7
413.299,3,2,6,7
413.299,2,0,1,3
413.3,1,-2,-2,1
413.301,1,-2,-6,-2
413.301,2,-1,-4,-2
413.302,2,1,-2,2
413.302,6,3,0,5
413.303,9,5,3,8
413.304,10,3,2,7
413.304,9,0,-2,5
413.305,8,2,2,8
413.305,8,3,4,10
413.306,8,3,6,10
413.306,6,1,3,5
413.307,3,1,0,0
413.307,0,0,0,-1
413.308,0,1,1,-1
413.309,0,3,3,0
413.309,2,7,5,0
413.31,2,7,5,-1
413.31,0,7,5,-2
413.311,0,6,4,-2
413.311,0,6,4,-2
413.312,0,5,2,-3
413.313,0,6,0,-4
413.313,0,5,2,-1
413.314,0,4,3,0
413.314,0,5,3,2
413.315,3,5,5,4
413.316,4,5,5,3
413.316,3,3,2,2
413.317,2,2,1,2
413.317,2,0,0,2
413.318,2,0,1,3
413.318,4,2,1,4
413.319,4,2,1,3
413.32,4,1,0,3
413.32,4,1,0,4
413.321,4,2,3,5
413.321,6,4,2,4
413.322,5,2,1,2
413.322,3,0,0,2
413.323,1,0,1,6
413.324,5,1,5,10
413.324,5,0,2,9
413.325,5,0,0,6
413.325,3,-1,0,5
413.326,4,0,1,5
413.326,4,0,0,2
413.327,5,0,-5,-4
413.328,3,0,-9,-7
413.328,5,7,-1,-1
413.329,8,12,6,3
413.329,10,13,7,3
413.33,8,13,9,3
413.33,7,15,14,5
413.331,4,11,12,3
413.332,0,4,4,-4
413.332,-7,-1,-1,-7
413.333,-6,0,-1,-6
413.333,-4,1,0,-3
413.334,-3,1,1,-1
413.334,-1,0,0,0
413.335,0,3,4,2
413.336,2,4,6,6
413.336,5,5,5,4
413.337,4,3,2,2
413.337,2,1,0,1
413.338,2,2,2,4
413.338,4,2,3,5
413.339,5,2,0,4
413.34,4,1,0,3
413.34,4,1,0,2
413.341,3,2,2,4
413.341,5,3,2,4
413.342,5,2,1,3
413.342,5,2,0,3
413.343,4,0,0,4
413.344,5,0,0,5
413.344,7,2,1,7
413.345,7,2,2,7
413.345,8,3,1,5
413.346,6,1,0,3
413.347,4,2,3,6
413.347,5,4,4,4
413.348,4,3,3,2
413.348,2,3,3,0
413.349,1,4,2,-1
413.349,0,5,3,-2
413.35,0,5,3,-3
413.351,0,5,2,-4
413.351,0,6,4,-2
413.352,0,8,5,-2
413.352,0,7,5,-1
413.353,0,7,5,-1
413.353,-1,4,6,1
413.354,0,2,1,0
413.355,0,2,-1,-2
413.355,0,2,-1,-2
413.356,1,2,0,0
413.356,4,5,2,3
413.357,6,6,5,6
413.357,7,5,3,4
413.358,5,4,3,4
413.359,3,4,9,9
413.359,4,3,7,8
413.36,3,0,4,6
413.36,2,-1,0,2
413.361,1,-2,-3,0
413.361,0,-3,-3,0
413.362,0,-2,-2,1
413.363,3,0,0,5
413.363,6,1,1,6
413.364,8,2,0,6
413.364,8,2,1,5
413.365,6,0,0,5
413.365,7,3,1,6
413.366,8,6,6,8
413.367,8,6,5,5
413.367,5,4,4,2
413.368,2,2,2,0
413.368,0,2,3,1
413.369,2,5,3,0
413.369,1,5,2,-3
413.37,0,5,2,-4
413.371,0,6,2,-3
413.371,0,6,3,-3
413.372,1,8,4,-2
413.372,1,7,5,-1
413.373,0,5,3,-2
413.374,-1,4,3,-1
413.374,0,3,2,0
413.375,0,3,3,1
413.375,2,3,3,1
413.376,2,3,2,2
413.376,2,2,2,3
413.377,3,3,3,4
413.378,4,3,3,5
413.378,5,3,3,4
413.379,5,2,2,3
413.379,3,0,0,4
413.38,4,0,0,3
413.38,4,0,0,2
413.381,4,0,0,2
413.382,5,2,1,3
413.382,5,1,0,4
413.383,4,0,0,3
413.383,4,0,0,6
413.384,6,1,2,7
413.384,8,4,3,7
413.385,6,2,2,6
413.386,6,2,1,4
413.386,5,3,1,3
413.387,5,3,3,3
413.387,3,3,0,0
413.388,2,3,1,0
413.388,3,5,3,1
413.389,4,8,6,2
413.39,2,7,5,-1
413.39,0,7,5,-2
413.391,0,7,6,-1
413.391,0,6,3,-4
413.392,-3,1,0,-6
413.392,-3,1,0,-4
413.393,-1,5,3,0
413.394,1,5,5,3
413.394,3,5,5,4
413.395,3,4,4,3
413.395,2,2,2,1
413.396,1,1,1,1
413.397,0,1,1,1
413.397,1,1,0,1
413.398,3,2,1,2
413.398,2,2,1,2
413.399,3,3,3,4
413.399,4,3,2,5
413.4,5,2,1,4
413.401,5,3,1,3
413.401,5,3,2,5
413.402,6,4,4,6
413.402,6,3,3,5
413.403,5,-1,-3,3
413.403,4,-1,-1,5
413.404,4,0,0,5
413.405,5,0,0,6
413.405,5,0,0,4
413.406,7,1,0,5
413.406,6,3,0,3
413.407,7,4,0,0
413.407,4,4,0,0
413.408,5,7,3,2
413.409,7,11,10,6
413.409,7,10,8,1
413.41,1,6,3,-2
413.41,0,6,3,-4
413.411,-3,3,3,-4
413.411,-3,3,2,-4
413.412,-4,2,2,-4
413.413,-3,5,8,2
413.413,0,5,8,3
413.414,0,0,2,0
413.414,-2,0,0,-1
413.415,0,1,1,1
413.416,2,2,2,2
413.416,4,4,3,3
413.417,5,4,3,3
413.417,4,3,2,4
413.418,5,3,2,3
413.418,4,3,2,4
413.419,5,2,0,3
413.42,5,2,0,3
413.42,5,2,1,3
413.421,5,3,2,4
413.421,5,2,2,5
413.422,5,2,0,3
413.422,5,1,0,3
413.423,3,-1,0,4
413.423,3,0,3,8
413.424,6,0,2,7
413.425,5,0,0,6
413.425,6,1,2,7
413.426,7,3,4,6
413.426,4,2,1,2
413.427,2,0,0,0
413.427,1,1,-1,0
413.428,3,3,-1,-1
413.429,4,7,1,-2
413.429,4,9,4,-1
413.43,4,10,7,0
413.43,4,11,9,1
413.431,2,10,7,-1
413.432,0,7,4,-3
413.432,-2,4,2,-4
413.433,-2,3,2,-3
413.433,-3,2,2,-1
413.434,0,1,1,-1
413.434,0,2,1,0
413.435,0,1,1,1
413.436,2,4,4,4
413.436,4,5,8,7
413.437,4,5,7,6
413.437,3,2,3,3
413.438,1,0,1,2
413.438,1,-1,-1,0
413.439,0,-1,-3,0
413.44,3,2,-1,2
413.44,5,3,0,3
413.441,7,5,2,5
413.441,8,5,5,7
413.442,8,4,3,5
413.443,5,1,1,5
413.443,3,-2,-1,4
413.444,4,-2,-2,4
413.444,4,0,0,6
413.445,5,0,2,7
413.445,7,2,0,3
413.446,6,1,-3,0
413.446,4,5,3,4
413.447,6,8,9,7
413.448,5,6,6,3
413.448,2,4,3,1
413.449,2,6,3,0
413.449,2,7,3,-2
413.45,0,5,1,-5
413.45,-1,4,1,-4
413.451,0,7,3,-3
413.452,0,7,5,-2
413.452,0,6,5,-1
413.453,-1,5,2,-2
413.453,-2,2,1,-1
413.454,-1,2,1,0
413.454,2,5,6,5
413.455,4,5,7,5
413.456,3,3,4,3
413.456,1,1,2,2
413.457,1,1,2,3
413.457,3,2,2,3
413.458,3,2,2,3
413.458,3,1,0,2
413.459,3,0,0,2
413.46,4,2,0,3
413.46,5,2,0,3
413.461,5,2,0,2
413.461,4,2,0,3
413.462,5,2,1,5
413.463,5,1,1,6
413.463,6,1,1,8
413.464,7,1,1,7
413.464,6,2,2,6
413.465,4,1,6,9
413.465,4,0,1,4
413.466,2,-2,-4,-1
413.467,2,0,-5,-2
413.467,3,4,0,1
413.468,6,6,2,1
413.468,6,7,2,0
413.469,5,9,4,0
413.469,5,12,10,4
413.47,4,16,24,13
413.471,1,8,13,3
413.471,-5,-1,0,-6
413.472,-8,-2,-2,-9
413.472,-8,-2,-2,-8
413.473,-6,-1,-2,-6
413.473,-4,0,0,-2
413.474,0,3,2,2
413.475,5,8,8,6
413.475,6,5,4,2
413.476,2,1,0,0
413.476,2,0,-1,0
413.477,4,5,2,5
413.477,9,9,6,8
413.478,10,7,3,5
413.479,6,3,0,3
413.479,5,2,1,4
413.48,5,2,1,5
413.48,6,3,4,6
413.481,5,3,5,7
413.481,3,0,0,1
413.482,-1,-4,-3,0
413.483,0,-3,-2,2
413.483,3,-1,-1,3
413.484,5,0,-1,3
413.484,4,0,0,4
413.485,6,4,3,8
413.486,10,7,7,10
413.486,10,7,6,6
413.487,6,4,2,2
413.487,2,3,1,0
413.488,1,4,2,0
413.488,2,5,3,0
413.489,1,5,4,-1
413.49,0,6,3,-2
413.49,0,7,4,-2
413.491,0,5,3,-3
413.491,0,6,2,-4
413.492,-2,3,0,-5
413.492,-1,4,2,-1
413.493,1,6,5,2
413.494,2,5,4,3
413.494,3,4,3,2
413.495,3,4,5,4
413.495,2,4,6,5
413.496,2,2,4,3
413.496,0,1,1,1
413.497,0,0,0,0
413.498,0,-2,-5,-3
413.498,0,0,-4,0
413.499,3,3,2,4
413.499,7,6,3,6
413.5,8,6,3,5
413.5,9,7,4,6
413.501,8,5,3,6
413.502,7,4,2,4
413.502,5,1,0,3
413.503,3,-1,-1,4
413.503,3,-3,-2,4
413.504,4,-1,0,5
413.505,5,0,0,6
413.505,5,0,2,6
413.506,6,3,2,5
413.506,6,4,3,4
413.507,4,4,3,3
413.507,3,4,3,2
413.508,2,4,3,0
413.509,1,4,4,0
413.509,0,4,3,-1
413.51,1,6,4,-2
413.51,0,6,2,-3
413.511,-1,5,2,-3
413.512,0,5,2,-4
413.512,0,6,4,-2
413.513,0,6,4,-1
413.513,0,4,3,1
413.514,1,4,3,1
413.514,2,5,5,3
413.515,2,4,4,2
413.515,1,1,2,2
413.516,1,2,3,4
413.517,2,1,3,5
413.517,3,2,1,2
413.518,2,1,0,3
413.518,4,2,2,4
413.519,5,2,1,4
413.519,5,2,0,4
413.52,4,1,0,2
413.521,4,2,0,4
413.521,5,2,2,5
413.522,6,3,4,6
413.522,5,1,2,5
413.523,3,-2,-1,3
413.523,2,-3,-3,2
413.524,3,-1,-1,3
413.525,5,0,0,5
413.525,7,4,2,6
413.526,8,4,0,4
413.526,6,5,2,2
413.527,6,8,7,5
413.527,5,8,9,7
413.528,4,5,6,2
413.529,2,4,4,0
413.529,0,3,2,-2
413.53,-1,4,1,-5
413.53,-3,2,0,-7
413.531,-3,3,0,-5
413.531,-1,5,1,-4
413.532,1,7,2,-3
413.533,2,7,2,-2
413.533,1,6,3,0
413.534,3,8,7,4
413.534,5,7,9,6
413.535,4,4,5,3
413.536,1,0,-1,0
413.536,0,-1,-3,-2
413.537,0,0,-1,0
413.537,3,1,0,3
413.538,6,4,1,4
413.538,8,8,9,11
413.539,9,8,15,14
413.54,5,1,4,6
413.54,0,-4,-2,0
413.541,-1,-3,-1,0
413.541,0,-1,0,2
413.542,1,-2,-3,0
413.542,1,-3,-4,2
413.543,3,-1,0,6
413.543,8,3,3,10
413.544,10,3,3,8
413.545,7,1,0,5
413.545,6,1,0,3
413.546,6,2,0,3
413.546,8,7,4,5
413.547,7,7,5,4
413.548,4,6,5,3
413.548,2,4,3,-1
413.549,0,4,0,-4
413.549,0,4,-1,-7
413.55,-1,8,6,-1
413.55,0,8,7,0
413.551,1,7,6,-1
413.552,0,8,7,0
413.552,0,7,6,-1
413.553,-2,3,2,-3
413.553,-5,0,0,-1
413.554,-1,0,1,0
413.555,0,1,0,0
413.555,1,2,0,0
413.556,3,3,3,2
413.556,5,5,4,5
413.557,7,6,7,7
413.557,8,6,3,5
413.558,5,2,0,3
413.559,4,1,0,3
413.559,3,0,0,2
413.56,3,0,-1,3
413.56,4,1,0,4
413.561,6,3,1,3
413.561,4,2,0,2
413.562,3,0,0,2
413.563,1,0,0,4
413.563,5,1,2,6
413.564,6,1,0,4
413.564,3,0,1,5
413.565,5,1,2,6
413.565,7,3,2,6
413.566,7,5,4,6
413.567,7,5,2,3
413.567,4,4,1,0
413.568,3,4,2,0
413.568,3,5,4,1
413.569,3,6,4,0
413.569,2,7,5,-1
413.57,0,5,3,-3
413.571,-1,5,3,-3
413.571,-1,4,2,-3
413.572,-1,5,3,-2
413.572,0,5,3,-1
413.573,0,4,4,0
413.573,0,2,1,0
413.574,0,1,1,0
413.575,1,4,4,2
413.575,1,4,4,3
413.576,2,3,4,4
413.576,4,3,3,3
413.577,4,3,2,3
413.578,3,2,2,3
413.578,3,1,1,3
413.579,4,2,1,4
413.579,6,3,3,5
413.58,5,1,1,4
413.58,4,1,0,3
413.581,4,0,0,3
413.581,4,0,0,4
413.582,4,0,0,4
413.583,2,-2,-1,5
413.583,4,0,0,5
413.584,7,2,1,6
413.584,6,1,2,6
413.585,8,4,2,6
413.585,7,3,1,3
413.586,5,3,1,1
413.587,4,3,2,2
413.587,4,5,4,2
413.588,4,5,5,2
413.588,4,7,5,1
413.589,2,7,5,-1
413.59,0,6,4,-2
413.59,0,6,3,-4
413.591,-1,5,3,-4
413.591,-1,4,1,-4
413.592,-1,4,1,-3
413.592,0,4,1,-2
413.593,0,4,3,0
413.593,1,4,4,2
413.594,3,5,5,3
413.595,3,5,5,3
413.595,3,3,2,2
413.596,3,2,1,1
413.596,2,2,0,1
413.597,3,2,0,1
413.598,5,5,5,6
413.598,5,5,7,8
413.599,4,2,5,7
413.599,3,0,1,4
413.6,2,-1,0,3
413.6,0,-2,-1,1
413.601,1,-3,-3,1
413.602,2,0,-1,2
413.602,4,1,0,6
413.603,6,2,0,6
413.603,6,0,-2,3
413.604,6,0,-2,3
413.604,7,2,0,4
413.605,9,7,5,8
413.606,10,8,6,7
413.606,8,7,4,3
413.607,3,4,2,2
413.607,3,4,4,2
413.608,3,4,2,0
413.608,2,5,2,-1
413.609,0,6,4,-1
413.61,1,7,5,-2
413.61,0,6,2,-3
413.611,-1,6,4,-3
413.611,-2,4,3,-3
413.612,-2,4,3,-3
413.612,-1,4,3,-2
413.613,0,3,3,0
413.614,1,3,1,0
413.614,1,2,1,0
413.615,1,2,2,1
413.615,3,4,3,4
413.616,6,5,6,7
413.617,5,5,7,8
413.617,6,4,5,7
413.618,4,1,1,3
413.618,2,0,-1,0
413.619,1,-2,-4,-1
413.619,2,0,-1,1
413.62,3,2,1,4
413.621,5,2,2,4
413.621,6,4,3,6
413.622,6,4,2,5
413.622,4,0,0,5
413.623,4,0,1,6
413.623,5,0,0,5
413.624,4,0,1,7
413.625,6,3,5,9
413.625,7,2,5,8
413.626,5,0,0,1
413.626,2,1,1,2
413.627,3,4,2,1
413.627,3,4,2,0
413.628,1,3,1,-1
413.629,0,4,1,-2
413.629,1,7,4,-1
413.63,1,8,5,0
413.63,1,7,5,-1
413.631,0,7,4,-2
413.631,0,6,3,-3
413.632,0,5,3,-1
413.633,0,5,3,-1
413.633,0,2,0,-1
413.634,0,1,0,0
413.634,2,3,2,2
413.635,4,7,5,3
413.635,5,8,6,3
413.636,2,3,3,1
413.637,1,1,1,0
413.637,1,1,1,3
413.638,3,2,2,3
413.638,3,2,3,5
413.639,4,1,1,4
413.639,4,1,0,3
413.64,4,0,1,4
413.641,5,2,1,4
413.641,5,2,0,3
413.642,4,1,0,3
413.642,3,-1,-1,4
413.643,6,1,0,6
413.643,7,1,1,7
413.644,6,0,0,6
413.645,8,2,1,7
413.645,8,3,2,6
413.646,7,4,0,2
413.646,5,3,1,1
413.647,2,3,1,0
413.647,2,4,3,0
413.648,3,6,3,0
413.649,2,8,5,-1
413.649,1,8,3,-4
413.65,0,8,5,-2
413.65,-1,7,5,-1
413.651,0,7,7,0
413.651,0,7,7,1
413.652,-1,3,5,0
413.653,-2,0,1,0
413.653,-2,0,1,0
413.654,1,3,2,0
413.654,2,3,1,0
413.655,1,1,-1,-2
413.655,0,1,0,0
413.656,2,4,4,5
413.657,5,5,6,8
413.657,6,4,5,6
413.658,6,4,5,6
413.658,4,2,4,5
413.659,3,0,-2,0
413.66,1,-1,-4,0
413.66,3,1,0,3
413.661,5,3,1,5
413.661,5,2,2,5
413.662,5,1,0,4
413.662,5,0,0,5
413.663,7,1,1,8
413.664,8,2,3,8
413.664,7,1,3,7
413.665,5,1,2,6
413.665,5,1,1,3
413.666,2,0,-2,0
413.666,2,1,-1,-1
413.667,3,4,1,0
413.668,4,5,1,0
413.668,5,9,4,0
413.669,4,10,7,1
413.669,3,10,8,0
413.67,1,7,5,-2
413.67,-1,5,4,-3
413.671,-2,5,4,-3
413.672,-3,3,3,-3
413.672,-3,3,4,0
413.673,-1,2,3,0
413.673,0,2,3,1
413.674,1,3,2,0
413.674,0,2,0,0
413.675,1,0,1,1
413.676,2,3,3,4
413.676,4,4,4,5
413.677,5,4,3,4
413.677,5,4,3,4
413.678,3,2,0,2
413.678,3,1,1,3
413.679,4,2,1,4
413.68,5,2,2,5
413.68,5,2,2,5
413.681,4,1,0,3
413.681,4,0,0,2
413.682,3,0,-1,3
413.682,3,-1,0,4
413.683,5,0,1,6
413.684,6,1,1,7
413.684,6,0,0,4
413.685,7,2,0,4
413.685,5,3,1,3
413.686,6,3,2,4
413.686,6,7,4,3
413.687,6,6,1,0
413.688,5,6,0,-1
413.688,4,8,3,-2
413.689,2,8,5,0
413.689,1,8,6,-1
413.69,0,7,6,-1
413.691,0,7,6,-1
413.691,-1,5,5,-2
413.692,-3,4,6,0
413.692,-4,1,3,-1
413.693,-4,0,0,-1
413.693,-1,1,2,1
413.694,0,1,1,0
413.695,0,2,1,1
413.695,2,2,2,2
413.696,4,3,3,4
413.696,5,4,4,5
413.697,6,3,1,2
413.697,4,3,0,2
413.698,3,0,1,4
413.699,5,3,3,7
413.699,7,5,3,6
413.7,5,3,3,4
413.7,5,2,2,3
413.701,4,2,1,3
413.701,3,0,0,2
413.702,2,-3,-4,2
413.703,3,-2,-4,2
413.703,4,0,0,4
413.704,6,1,1,7
413.704,7,3,4,9
413.705,9,5,3,7
413.706,8,4,2,3
413.706,6,4,2,1
413.707,3,4,1,0
413.707,2,5,2,0
413.708,3,6,4,0
413.708,3,7,2,-2
413.709,1,7,3,-2
413.709,0,9,8,2
413.71,1,7,7,0
413.711,0,5,4,-2
413.711,-2,2,1,-3
413.712,-2,2,2,-3
413.712,-3,1,2,-1
413.713,-2,1,1,0
413.714,0,1,2,0
413.714,1,3,1,1
413.715,2,3,1,1
413.715,3,4,2,3
413.716,4,4,4,4
413.716,3,3,2,4
413.717,5,4,3,4
413.718,5,2,0,1
413.718,4,0,-3,0
413.719,4,1,-2,0
413.719,5,4,0,5
413.72,8,6,4,6
413.72,9,9,9,9
413.721,9,7,10,10
413.722,5,0,2,5
413.722,0,-6,-3,2
413.723,0,-6,-4,2
413.723,1,-2,0,3
413.724,2,-2,0,4
413.724,4,1,2,6
413.725,6,3,3,6
413.726,7,4,3,4
413.726,6,5,1,1
413.727,4,5,1,0
413.727,2,4,2,0
413.728,3,5,3,0
413.729,3,8,4,-1
413.729,2,10,5,0
413.73,2,8,4,-2
413.73,0,7,3,-3
413.731,0,5,1,-4
413.731,0,6,3,-3
413.732,0,5,4,-1
413.733,0,4,5,1
413.733,0,3,3,2
413.734,1,2,4,3
413.734,3,3,4,4
413.735,3,2,2,3
413.735,2,-1,-3,-1
413.736,1,0,0,1
413.737,2,2,2,3
413.737,4,4,3,3
413.738,4,4,3,3
413.738,4,2,3,3
413.739,4,2,2,3
413.739,3,2,1,2
413.74,3,0,0,2
413.74,4,3,2,3
413.741,4,2,2,5
413.742,5,3,4,7
413.742,6,0,0,6
413.743,6,0,-2,2
413.743,5,0,-1,3
413.744,6,1,0,5
413.744,7,3,3,7
413.745,7,4,4,6
413.746,6,3,2,3
413.746,4,3,1,1
413.747,4,5,3,3
413.747,3,5,5,1
413.748,2,4,3,0
413.749,0,5,3,-2
413.749,0,6,3,-3
413.75,-1,5,2,-3
413.75,-1,5,4,-3
413.751,-1,5,4,-2
413.751,0,6,4,0
413.752,0,5,5,0
413.753,0,3,3,0
413.753,0,1,2,0
413.754,0,1,1,1
413.754,2,3,3,3
413.755,3,4,6,6
413.755,4,3,4,4
413.756,4,2,2,3
413.757,3,1,1,3
413.757,3,1,0,3
413.758,3,0,0,2
413.758,3,0,-1,1
413.759,3,0,-4,0
413.759,5,3,0,3
413.76,8,6,4,6
413.761,9,7,4,6
413.761,7,5,3,6
413.762,4,1,2,6
413.762,4,0,0,5
413.763,4,-1,0,4
413.764,4,0,-1,4
413.764,4,0,1,6
413.765,5,2,2,5
413.765,6,2,1,4
413.766,5,3,2,2
413.766,3,2,0,0
413.767,3,4,2,1
413.768,4,6,3,1
413.768,4,9,7,1
413.769,2,8,7,1
413.769,0,7,5,-2
413.77,0,4,0,-6
413.77,-2,4,1,-4
413.771,0,6,7,0
413.772,0,6,5,-1
413.772,-1,3,4,-1
413.773,-1,2,4,0
413.773,0,2,3,2
413.774,0,1,1,0
413.774,0,0,0,0
413.775,1,3,3,3
413.775,4,3,4,5
413.776,5,4,4,5
413.777,6,3,2,3
413.777,5,2,-1,0
413.778,2,0,-3,0
413.778,4,2,0,2
413.779,6,3,3,5
413.78,6,3,2,5
413.78,7,4,4,6
413.781,6,4,4,7
413.781,7,3,2,5
413.782,5,0,0,4
413.782,3,-1,-1,3
413.783,4,-1,-2,2
413.784,3,0,-2,3
413.784,5,1,0,5
413.785,6,3,3,5
413.785,5,3,2,4
413.786,4,4,4,4
413.786,5,6,5,3
413.787,5,6,3,2
413.788,3,5,3,-1
413.788,1,6,4,-1
413.789,1,6,4,-2
413.789,-1,6,6,0
413.79,0,6,7,0
413.79,0,4,3,-4
413.791,-3,2,0,-5
413.792,-4,2,1,-3
413.792,-2,2,1,-2
413.793,0,3,2,0
413.793,3,5,2,1
413.794,3,5,4,2
413.795,3,4,3,4
413.795,4,5,4,4
413.796,5,4,3,3
413.796,3,2,2,3
413.797,3,3,6,6
413.797,3,2,5,6
413.798,3,0,0,3
413.799,3,0,0,3
413.8,3,0,0,2
413.8,2,0,0,2
413.8,3,0,0,3
413.801,3,0,-1,3
413.801,5,0,-2,2
413.802,5,0,-3,3
413.802,8,3,0,5
413.803,9,4,1,6
413.804,7,2,1,6
413.804,8,3,2,8
413.805,10,8,10,11
413.805,8,8,12,10
413.806,4,2,5,4
413.806,0,0,-1,-1
413.807,-1,0,-1,-3
413.808,0,2,0,-4
413.808,-1,3,0,-4
413.809,0,4,0,-4
413.809,0,8,4,-1
413.81,3,9,6,0
413.811,1,9,5,-1
413.811,1,5,3,-3
413.812,0,5,5,0
413.812,0,5,4,0
413.813,1,4,4,1
413.814,0,2,1,0
413.814,0,1,1,0
413.815,1,2,2,1
413.815,3,4,4,3
413.816,4,4,5,5
413.816,4,3,3,3
413.817,3,2,2,3
413.818,3,1,2,4
413.818,4,3,4,6
413.819,5,1,1,4
413.819,5,0,-1,2
413.82,4,0,-1,1
413.82,4,1,-2,0
413.821,5,2,-1,2
413.822,5,1,0,4
413.822,6,1,1,7
413.823,7,1,1,8
413.823,8,3,3,7
413.824,7,2,2,6
413.824,6,2,1,4
413.825,5,2,0,3
413.826,5,4,3,5
413.826,6,6,5,4
413.827,3,3,3,1
413.827,1,3,3,0
413.828,0,3,1,-2
413.828,0,3,0,-5
413.829,0,7,4,-3
413.829,0,9,8,0
413.83,0,8,6,-2
413.831,-2,4,2,-5
413.831,-4,4,3,-4
413.832,-2,4,6,0
413.832,0,3,5,2
413.833,1,3,5,4
413.834,2,3,4,3
413.834,1,2,3,3
413.835,1,0,-1,0
413.835,2,0,-1,0
413.836,4,2,0,1
413.836,5,3,0,3
413.837,7,5,3,5
413.838,6,5,3,6
413.838,6,2,1,4
413.839,6,3,2,4
413.839,6,3,3,6
413.84,7,4,2,5
413.84,4,1,0,2
