Program Time [s],data 0,data 1,data 2,data 3
352.242,4,1,3,7
352.243,6,1,3,8
352.244,5,-1,0,7
352.244,5,-1,0,5
352.245,4,0,0,5
352.245,4,0,0,5
352.246,6,2,1,5
352.246,6,3,1,5
352.247,7,5,3,4
352.248,6,5,2,2
352.248,4,5,2,0
352.249,3,4,3,0
352.249,3,6,3,0
352.25,3,8,5,-1
352.25,1,7,4,-2
352.251,0,5,1,-5
352.252,-2,4,0,-5
352.252,-1,5,2,-4
352.253,-1,6,3,-3
352.253,0,7,5,-1
352.254,0,6,5,0
352.254,0,5,5,1
352.255,2,5,4,1
352.256,2,4,4,2
352.256,2,4,3,2
352.257,2,2,2,2
352.257,2,3,2,2
352.258,2,0,1,2
352.258,2,1,0,3
352.259,4,2,2,4
352.26,4,2,2,5
352.26,5,1,1,4
352.261,4,0,1,4
352.261,4,0,0,3
352.262,4,0,0,3
352.263,5,2,0,4
352.263,6,1,0,5
352.264,6,0,0,6
352.264,6,0,2,7
352.265,6,1,2,6
352.265,6,0,1,7
352.266,6,2,2,4
352.267,5,2,1,4
352.267,5,4,2,3
352.268,5,4,1,0
352.268,2,3,2,0
352.269,2,3,2,0
352.269,3,6,4,0
352.27,2,7,4,0
352.271,2,8,5,0
352.271,1,8,6,-1
352.272,0,6,5,-3
352.272,-2,4,3,-4
352.273,-2,3,2,-3
352.273,-2,3,1,-3
352.274,-2,3,1,-1
352.275,0,4,3,0
352.275,3,5,4,1
352.276,2,3,2,1
352.276,2,4,4,4
352.277,4,3,4,4
352.277,4,3,4,5
352.278,4,3,3,4
352.279,3,1,2,4
352.279,3,1,0,3
352.28,3,1,2,5
352.28,4,1,1,4
352.281,4,0,-1,1
352.281,4,0,0,3
352.282,5,2,1,4
352.283,5,1,2,6
352.283,6,1,0,5
352.284,5,0,0,5
352.284,6,0,0,6
352.285,7,1,1,6
352.286,7,1,1,7
352.286,7,2,2,6
352.287,7,3,1,3
352.287,4,3,2,3
352.288,3,4,3,3
352.288,3,4,4,3
352.289,2,4,1,0
352.29,1,5,3,-1
352.29,0,6,4,-2
352.291,-1,5,3,-3
352.291,-2,5,4,-4
352.292,-2,6,3,-5
352.292,-2,5,3,-4
352.293,-2,5,3,-2
352.294,0,5,2,-2
352.294,0,4,2,-1
352.295,2,6,4,2
352.295,5,7,6,4
352.296,5,5,5,4
352.296,4,5,3,3
352.297,2,1,2,2
352.298,3,2,2,4
352.298,4,2,2,4
352.299,4,2,1,3
352.299,3,1,0,4
352.3,3,1,1,4
352.3,3,1,2,5
352.301,4,0,2,4
352.302,4,0,0,2
352.302,4,0,-1,2
352.303,3,0,-1,2
352.303,4,0,-1,4
352.304,6,0,0,5
352.304,8,2,3,8
352.305,7,4,6,9
352.306,7,3,6,8
352.306,5,0,2,5
352.307,4,0,0,1
352.307,1,0,0,0
352.308,1,1,0,0
352.308,2,3,1,0
352.309,2,6,2,0
352.31,3,7,4,0
352.31,3,9,6,0
352.311,1,9,5,-2
352.311,0,6,3,-3
352.312,0,7,5,-2
352.312,0,5,3,-3
352.313,0,5,3,-3
352.314,-1,4,2,-2
352.314,-1,4,4,0
352.315,1,3,4,2
352.315,2,4,4,2
352.316,2,4,3,2
352.316,2,2,1,2
352.317,2,2,2,4
352.318,4,3,3,4
352.318,4,2,2,4
352.319,4,1,1,3
352.319,4,0,0,2
352.32,3,1,0,3
352.321,5,1,0,4
352.321,5,2,0,4
352.322,5,1,1,4
352.322,6,2,0,4
352.323,5,0,0,4
352.323,6,0,0,5
352.324,5,0,0,6
352.325,7,2,2,7
352.325,7,0,0,5
352.326,7,2,2,6
352.326,6,3,5,7
352.327,5,3,5,5
352.327,4,4,3,2
352.328,2,2,1,0
352.329,0,2,1,-1
352.329,0,3,1,-1
352.33,1,5,3,-1
352.33,1,7,3,-1
352.331,1,8,3,-2
352.331,2,8,4,-3
352.332,1,8,5,-1
352.333,0,7,4,-2
352.333,0,5,4,-1
352.334,0,4,3,0
352.334,0,4,3,0
352.335,0,2,2,0
352.335,0,1,2,0
352.336,0,2,1,1
352.337,2,3,3,3
352.337,4,4,4,5
352.338,5,4,3,3
352.338,2,1,1,3
352.339,2,1,2,4
352.339,4,1,1,4
352.34,5,2,2,5
352.341,6,2,2,4
352.341,4,1,0,3
352.342,4,0,0,3
352.342,5,2,1,5
352.343,5,1,1,5
352.344,5,-1,-1,4
352.344,4,-3,-3,3
352.345,4,0,0,5
352.345,5,0,2,7
352.346,9,4,4,7
352.346,7,4,2,4
352.347,4,3,1,2
352.348,4,5,2,1
352.348,2,5,2,0
352.349,2,5,3,0
352.349,2,6,5,0
352.35,3,8,5,0
352.35,2,8,4,-3
352.351,0,7,4,-3
352.352,0,6,3,-3
352.352,-1,5,4,-2
352.353,-2,4,2,-3
352.353,-1,4,2,-2
352.354,-1,3,1,-1
352.354,0,3,1,0
352.355,1,3,3,0
352.356,2,4,4,3
352.356,4,6,8,6
352.357,4,4,5,6
352.357,3,2,3,3
352.358,1,0,0,1
352.358,2,0,0,3
352.359,3,0,1,3
352.36,3,0,1,3
352.36,3,1,1,4
352.361,5,1,2,5
352.361,5,2,1,5
352.362,4,1,0,4
352.362,5,1,1,5
352.363,5,0,0,6
352.364,5,0,0,5
352.364,5,0,0,5
352.365,5,0,0,5
352.365,5,1,1,6
352.366,7,3,3,6
352.366,7,5,3,5
352.367,7,5,2,2
352.368,4,3,1,0
352.368,2,3,1,0
352.369,2,5,2,0
352.369,2,6,3,-1
352.37,1,7,4,-1
352.37,0,7,4,-2
352.371,0,7,4,-3
352.372,-1,6,2,-3
352.372,-1,6,4,-1
352.373,0,6,6,0
352.373,0,6,5,0
352.374,0,3,3,-1
352.375,0,2,1,0
352.375,0,3,3,0
352.376,1,3,3,1
352.376,2,2,2,3
352.377,3,2,2,3
352.377,3,2,1,3
352.378,4,2,2,3
352.379,4,2,2,4
352.379,4,2,2,4
352.38,4,0,1,5
352.38,4,1,1,5
352.381,5,1,1,5
352.381,6,1,2,5
352.382,5,3,3,5
352.383,5,1,0,4
352.383,2,-2,-2,4
352.384,3,-1,0,4
352.384,5,0,0,5
352.385,6,1,0,5
352.385,6,2,2,6
352.386,7,3,2,5
352.387,6,3,0,0
352.387,5,4,0,0
352.388,3,5,1,1
352.388,5,6,5,2
352.389,6,9,5,2
352.389,3,7,4,0
352.39,3,8,4,-1
352.391,0,6,3,-3
352.391,0,5,4,-2
352.392,0,5,1,-3
352.392,-1,4,2,-3
352.393,0,6,4,-1
352.393,-1,3,3,-1
352.394,-2,2,2,0
352.395,0,2,3,0
352.395,0,4,4,1
352.396,1,2,1,0
352.396,1,2,0,0
352.397,0,2,3,2
352.397,3,3,5,6
352.398,5,4,5,7
352.399,6,4,4,6
352.399,4,2,2,5
352.4,5,1,3,5
352.4,4,0,0,4
352.401,4,0,0,4
352.401,5,1,0,4
352.402,5,1,1,5
352.403,5,1,0,4
352.403,5,0,0,5
352.404,4,-1,-1,4
352.404,5,0,1,5
352.405,5,0,0,5
352.406,5,0,1,5
352.406,5,3,3,5
352.407,7,4,3,3
352.407,5,4,3,2
352.408,3,5,3,1
352.408,2,4,2,0
352.409,3,6,3,0
352.41,1,7,4,-1
352.41,0,6,4,-1
352.411,0,8,5,-1
352.411,1,7,4,-3
352.412,-1,5,2,-3
352.412,-1,4,2,-3
352.413,0,4,2,-2
352.414,0,3,2,-1
352.414,0,3,2,0
352.415,2,5,4,1
352.415,2,5,4,2
352.416,4,4,3,2
352.416,3,4,4,3
352.417,3,3,2,2
352.418,2,2,2,3
352.418,3,2,2,3
352.419,3,0,0,2
352.419,2,0,0,4
352.42,4,1,0,4
352.42,5,2,1,4
352.421,5,2,1,4
352.422,5,2,1,5
352.422,5,1,0,4
352.423,4,0,0,4
352.423,4,-1,0,4
352.424,4,0,0,6
352.424,6,0,0,6
352.425,6,0,1,6
352.426,8,3,2,7
352.426,7,4,3,4
352.427,6,4,3,2
352.427,4,4,3,2
352.428,4,5,2,1
352.429,3,4,2,0
352.429,3,7,3,-1
352.43,0,7,3,-2
352.43,0,7,3,-3
352.431,0,7,3,-3
352.431,0,7,4,-3
352.432,0,7,6,0
352.433,0,6,7,0
352.433,-1,3,4,-1
352.434,-2,1,2,-1
352.434,-1,2,2,0
352.435,0,3,3,0
352.435,0,3,3,1
352.436,1,3,3,3
352.437,3,4,2,3
352.437,3,3,1,2
352.438,3,1,0,2
352.438,3,1,2,5
352.439,6,3,3,5
352.439,6,2,0,4
352.44,6,2,1,4
352.441,5,2,1,5
352.441,5,2,1,5
352.442,4,1,1,5
352.442,4,0,1,5
352.443,4,0,0,6
352.443,5,-1,-1,4
352.444,5,-1,0,5
352.445,5,0,0,5
352.445,6,2,2,6
352.446,8,4,3,5
352.446,6,4,1,3
352.447,4,3,1,1
352.447,3,3,1,0
352.448,3,5,2,1
352.449,3,5,4,0
352.449,3,7,4,0
352.45,1,6,3,-2
352.45,0,7,4,-2
352.451,0,7,5,-1
352.452,0,7,6,-1
352.452,0,6,3,-4
352.453,-3,2,1,-4
352.453,-3,2,0,-2
352.454,-1,2,2,0
352.454,1,4,4,1
352.455,3,6,5,3
352.455,3,4,5,3
352.456,2,3,3,3
352.457,3,3,2,3
352.457,2,2,2,3
352.458,2,0,2,3
352.458,3,2,3,5
352.459,4,2,2,5
352.46,4,1,2,4
352.46,3,0,0,3
352.461,4,0,-1,2
352.461,4,0,-1,3
352.462,5,2,0,4
352.462,5,1,1,4
352.463,5,1,1,6
352.464,5,0,1,7
352.464,6,1,1,6
352.465,5,0,1,5
352.465,6,1,2,6
352.466,6,2,2,4
352.466,6,3,4,4
352.467,4,5,4,3
352.468,3,3,3,0
352.468,1,0,-2,-3
352.469,0,2,-2,-4
352.469,1,6,1,-3
352.47,2,9,5,0
352.47,3,10,5,-1
352.471,1,9,5,-1
352.472,0,8,5,-2
352.472,0,7,5,-1
352.473,0,6,5,0
352.473,0,6,5,1
352.474,0,3,4,1
352.474,0,1,1,0
352.475,0,1,0,-1
352.476,0,1,1,1
352.476,4,4,4,4
352.477,5,4,3,5
352.477,4,2,1,4
352.478,3,2,2,4
352.478,3,0,1,2
352.479,2,0,0,2
352.48,1,0,0,1
352.48,3,0,0,3
352.481,4,2,3,5
352.481,6,3,3,5
352.482,6,3,2,4
352.482,4,1,2,6
352.483,5,0,1,8
352.484,6,0,0,6
352.484,6,1,0,5
352.485,5,0,1,6
352.485,6,1,1,5
352.486,6,3,1,3
352.486,5,3,2,3
352.487,3,3,2,0
352.488,2,4,2,0
352.488,2,4,2,0
352.489,3,6,5,0
352.489,2,7,5,-1
352.49,1,7,5,-1
352.491,0,6,4,-2
352.491,0,7,3,-3
352.492,-1,4,2,-4
352.492,-2,4,2,-3
352.493,-1,5,3,-1
352.493,0,3,2,0
352.494,0,4,3,1
352.495,2,5,5,2
352.495,2,3,3,2
352.496,2,2,2,1
352.496,1,2,2,2
352.497,3,3,2,3
352.497,4,3,2,4
352.498,4,3,2,3
352.499,4,2,1,4
352.499,4,1,1,3
352.5,3,0,1,4
352.5,5,1,0,3
352.501,4,1,2,5
352.501,5,2,2,5
352.502,6,1,0,4
352.503,4,0,-1,4
352.503,4,0,-1,5
352.504,5,-1,-2,5
352.504,6,1,0,5
352.505,6,1,1,6
352.505,7,4,4,8
352.506,7,4,4,5
352.507,6,4,2,2
352.507,3,3,2,1
352.508,1,3,3,0
352.508,1,4,3,0
352.509,2,7,5,0
352.509,1,7,4,-1
352.51,0,6,4,-2
352.511,-1,6,4,-3
352.511,-1,5,4,-2
352.512,-2,5,3,-2
352.512,-1,4,3,-3
352.513,0,5,2,-2
352.513,0,4,2,0
352.514,2,5,4,1
352.515,1,5,5,2
352.515,3,4,5,3
352.516,2,4,7,5
352.516,2,2,4,4
352.517,2,0,-1,0
352.517,0,0,0,1
352.518,2,0,0,3
352.519,3,0,-1,2
352.519,6,2,0,3
352.52,7,4,2,5
352.52,7,3,1,5
352.521,6,3,2,6
352.522,7,4,2,6
352.522,6,3,3,6
352.523,4,0,0,6
352.523,4,-1,0,5
352.524,5,0,0,5
352.524,5,0,0,5
352.525,5,0,0,3
352.526,4,1,0,2
352.526,5,2,0,2
352.527,4,4,2,1
352.527,3,5,3,2
352.528,4,5,4,2
352.529,3,6,4,1
352.529,3,7,5,1
352.53,2,8,4,-2
352.53,0,7,4,-2
352.531,0,7,5,0
352.531,0,6,4,-2
352.532,-1,5,3,-3
352.533,-1,4,3,-3
352.533,-1,3,2,-1
352.534,0,3,3,0
352.534,0,2,2,0
352.535,0,4,3,1
352.535,1,3,3,3
352.536,3,3,2,3
352.536,3,2,1,3
352.537,4,2,1,4
352.538,5,4,4,5
352.538,5,4,5,5
352.539,4,1,1,4
352.539,4,1,0,3
352.54,4,0,0,3
352.541,4,0,0,3
352.541,4,0,0,2
352.542,4,1,0,3
352.542,5,1,0,4
352.543,5,0,0,4
352.543,5,0,0,5
352.544,6,2,1,6
352.545,6,1,2,8
352.545,8,3,3,6
352.546,7,3,3,5
352.546,5,3,2,3
352.547,5,4,1,0
352.547,2,4,1,0
352.548,2,5,2,0
352.549,3,6,4,0
352.549,2,6,3,-1
352.55,0,6,3,-3
352.55,0,6,3,-3
352.551,0,7,3,-3
352.551,0,6,3,-3
352.552,0,6,3,-2
352.553,0,7,6,0
352.553,0,5,6,1
352.554,0,4,5,2
352.554,0,2,3,1
352.555,0,2,2,0
352.555,0,0,1,1
352.556,0,0,1,1
352.557,2,1,1,3
352.557,4,3,2,4
352.558,5,3,2,4
352.558,5,4,2,4
352.559,6,4,2,5
352.559,5,2,2,4
352.56,5,2,1,4
352.561,4,1,1,4
352.561,4,1,1,5
352.562,4,0,0,4
352.562,4,0,0,4
352.563,3,-2,-1,5
352.564,4,0,0,6
352.564,7,1,0,5
352.565,5,0,0,5
352.565,7,2,2,5
352.566,7,3,2,6
352.566,7,4,3,3
352.567,5,4,2,1
352.568,2,4,1,0
352.568,2,4,2,0
352.569,3,7,4,1
352.569,3,8,4,0
352.57,2,8,4,-2
352.57,0,7,4,-3
352.571,0,6,3,-3
352.572,-1,6,3,-3
352.572,-1,6,4,-2
352.573,-1,4,4,-1
352.573,-1,3,3,0
352.574,0,3,2,0
352.574,0,3,2,0
352.575,0,3,2,1
352.576,2,2,2,1
352.576,3,3,2,3
352.577,4,3,1,3
352.577,4,3,1,4
352.578,5,3,3,5
352.578,6,3,2,4
352.579,4,2,2,5
352.58,5,2,3,7
352.58,6,0,2,7
352.581,7,2,1,6
352.581,5,0,1,5
352.582,4,0,-1,3
352.582,1,-3,-4,0
352.583,0,-3,-2,1
352.584,3,0,0,5
352.584,5,2,3,6
352.585,6,2,2,5
352.585,7,3,2,4
352.586,5,3,1,2
352.586,4,5,2,2
352.587,4,5,3,3
352.588,7,8,6,4
352.588,5,7,5,2
352.589,5,7,3,-1
352.589,1,5,2,-2
352.59,0,5,2,-4
352.59,0,6,4,-2
352.591,0,7,5,-2
352.592,-1,4,3,-3
352.592,-1,5,5,-1
352.593,-1,4,2,-1
352.593,0,3,2,0
352.594,0,2,2,0
352.594,1,3,2,1
352.595,2,3,3,1
352.596,2,3,3,2
352.596,2,3,3,4
352.597,4,3,4,4
352.597,4,3,4,5
352.598,3,1,2,3
352.599,3,0,0,1
352.599,3,0,-1,3
352.6,5,1,0,2
352.6,5,2,0,3
352.601,7,4,1,5
352.601,8,5,5,7
352.602,6,3,4,7
352.603,4,0,0,5
352.603,3,-2,0,5
352.604,3,-2,0,5
352.604,3,-1,0,5
352.605,5,0,0,4
352.605,6,2,1,4
352.606,5,3,1,3
352.607,5,4,3,2
352.607,4,4,2,1
352.608,4,4,1,0
352.608,3,6,3,0
352.609,3,6,4,0
352.609,3,7,4,-1
352.611,1,7,4,-2
352.611,0,6,4,-2
352.611,0,7,5,-1
352.612,0,6,2,-2
352.612,0,6,3,-2
352.613,0,4,4,0
352.613,0,3,4,0
352.614,1,3,3,1
352.615,1,4,2,0
352.615,1,4,3,0
352.616,2,4,2,0
352.616,2,3,1,1
352.617,2,2,1,1
352.617,2,0,0,2
352.618,3,1,2,5
352.619,5,2,2,6
352.619,6,4,5,8
352.62,6,3,5,9
352.62,5,0,2,6
352.621,3,0,0,4
352.622,2,-1,0,2
352.622,2,-1,-2,2
352.623,1,-3,-3,3
352.623,4,0,0,6
352.624,6,1,2,7
352.624,7,2,1,6
352.625,6,2,0,4
352.626,6,3,1,3
352.626,5,4,2,3
352.627,5,6,4,3
352.627,4,5,3,1
352.628,3,5,3,0
352.628,2,6,4,0
352.629,3,8,5,0
352.63,1,7,4,-2
352.63,0,7,5,-1
352.631,0,7,5,-2
352.631,0,5,5,-2
352.632,-2,4,3,-3
352.632,-2,3,1,-3
352.633,-1,2,1,-3
352.634,0,1,0,-1
352.634,0,4,3,0
352.635,2,6,7,5
352.635,3,4,5,5
352.636,4,2,0,0
352.636,2,1,-1,0
352.637,3,4,2,3
352.638,5,4,4,5
352.638,5,3,3,6
352.639,4,2,2,5
352.639,5,2,1,5
352.64,5,1,0,3
352.64,4,0,-2,1
352.641,3,0,0,3
352.642,5,3,2,5
352.642,5,2,2,6
352.643,5,0,0,5
352.643,5,0,0,5
352.644,5,1,1,7
352.645,6,1,1,7
352.645,7,2,1,5
352.646,6,2,0,2
352.646,4,2,0,1
352.647,4,4,4,3
352.647,5,7,6,4
352.648,3,4,5,2
352.648,2,5,3,-1
352.649,0,4,2,-3
352.65,-1,5,2,-3
352.65,-2,4,3,-3
352.651,0,7,3,-3
352.651,0,5,1,-4
352.652,0,6,2,-3
352.652,0,7,5,0
352.653,2,6,5,0
352.654,1,5,5,2
352.654,2,5,5,2
352.655,2,4,5,2
352.655,2,3,3,3
352.656,2,1,2,2
352.657,2,1,1,2
352.657,3,2,2,4
352.658,4,2,1,2
352.658,3,0,0,2
352.659,2,1,0,5
352.659,6,2,1,5
352.66,6,2,1,5
352.661,7,0,-1,2
352.661,4,0,-1,2
352.662,5,2,0,3
352.662,4,1,0,5
352.663,4,0,1,5
352.663,5,1,0,5
352.664,6,0,0,3
352.665,5,0,-2,1
352.665,6,5,3,6
352.666,7,7,8,9
352.666,8,7,8,7
352.667,5,4,4,3
352.667,2,1,1,0
352.668,0,1,1,0
352.669,0,4,3,0
352.669,1,5,4,-1
352.67,0,5,3,-3
352.67,0,4,1,-4
352.671,0,7,4,-2
352.671,0,5,3,-2
352.672,0,6,5,-1
352.673,0,6,5,1
352.673,1,6,4,0
352.674,1,4,3,0
352.674,0,2,1,0
352.675,0,1,2,1
352.676,2,3,2,3
352.676,4,3,1,3
352.677,5,3,1,1
352.677,3,1,0,2
352.678,4,1,1,2
352.678,4,3,4,6
352.679,6,4,4,6
352.679,5,2,3,6
352.68,4,0,1,4
352.681,3,0,0,3
352.681,4,0,0,4
352.682,5,1,0,4
352.682,4,0,0,5
352.683,5,0,0,6
352.684,6,0,0,5
352.684,5,0,-1,3
352.685,6,1,0,5
352.685,7,4,1,4
352.686,7,5,3,5
352.686,7,6,2,2
352.687,5,6,5,3
352.688,4,6,5,1
352.688,1,4,4,0
352.689,0,4,3,-1
352.689,0,5,4,-1
352.69,0,6,4,-2
352.69,0,5,3,-3
352.691,-1,5,2,-4
352.691,-1,4,1,-4
352.692,-2,5,3,-2
352.693,0,6,5,0
352.693,1,6,6,2
352.694,3,5,2,1
352.694,1,3,1,0
352.695,1,1,1,0
352.696,2,2,3,4
352.696,4,4,4,5
352.697,5,3,3,4
352.697,4,2,2,3
352.698,3,1,1,3
352.698,3,1,0,3
352.699,3,1,0,3
352.7,3,1,0,4
352.7,4,1,0,4
352.701,5,1,0,4
352.701,4,1,1,4
352.702,4,1,0,4
352.702,4,0,0,6
352.703,5,0,1,7
352.704,7,2,2,7
352.704,7,1,1,6
352.705,6,2,1,5
352.705,5,3,1,3
352.706,5,3,2,3
352.707,4,4,3,2
352.707,2,3,1,0
352.708,2,3,2,0
352.709,3,6,4,0
352.709,3,7,5,0
352.709,2,7,4,-2
352.71,0,6,4,-3
352.711,-2,4,3,-3
352.711,-1,4,2,-4
352.712,-1,5,2,-3
352.712,0,5,5,0
352.713,0,5,6,1
352.713,0,3,4,1
352.714,1,4,5,3
352.715,2,4,4,3
352.715,2,2,2,1
352.716,2,1,0,1
352.716,2,1,0,1
352.717,3,1,-1,0
352.717,4,2,0,1
352.718,5,3,0,2
352.718,7,4,2,5
352.719,7,4,3,5
352.72,7,4,5,8
352.72,7,4,7,9
352.721,5,2,3,5
352.721,2,-1,0,3
352.722,1,-3,-1,2
352.723,0,-3,-2,2
352.723,2,-3,-1,5
352.724,5,0,0,4
352.724,5,0,-2,2
352.725,5,1,-1,2
352.725,7,5,2,4
352.726,9,7,4,4
352.727,7,8,6,5
352.727,6,8,5,3
352.728,5,6,4,1
352.728,3,7,4,0
352.729,1,6,3,-2
352.729,0,5,3,-3
352.73,-1,5,2,-3
352.731,-1,6,4,-3
352.731,-1,4,3,-3
352.732,-1,4,3,-2
352.732,-1,4,3,-1
352.733,-1,3,3,0
352.733,0,3,3,1
352.734,1,4,4,1
352.735,1,2,2,1
352.735,1,2,1,2
352.736,3,3,3,4
352.736,4,3,3,4
352.737,4,2,2,4
352.738,3,2,2,4
352.738,3,0,2,5
352.739,4,1,2,5
352.739,5,1,2,4
352.74,5,1,0,4
352.74,3,0,1,4
352.741,4,1,0,4
352.741,5,1,0,4
352.742,4,0,-1,5
352.743,5,0,-1,5
352.743,5,0,0,6
352.744,6,1,1,6
352.744,6,1,0,5
352.745,7,3,1,5
352.746,6,4,2,4
352.746,5,5,3,4
352.747,4,3,2,1
352.747,3,4,3,1
352.748,2,5,2,0
352.748,2,5,3,0
352.749,1,6,4,-1
352.75,0,7,4,-2
352.75,0,7,5,-2
352.751,0,7,6,-1
352.751,0,6,3,-3
352.752,-2,4,4,-1
352.752,-1,3,3,0
352.753,0,1,0,0
352.754,1,2,0,-1
352.754,1,2,-1,-1
352.755,1,2,0,0
352.755,3,4,3,2
352.756,5,6,4,4
352.757,5,7,7,7
352.757,5,5,6,6
352.758,3,2,3,4
352.758,1,0,0,2
352.759,1,0,1,4
352.759,3,0,2,5
352.76,4,2,2,4
352.76,4,3,3,4
352.761,4,0,0,3
352.762,3,0,0,4
352.762,4,-1,0,4
352.763,5,0,0,6
352.763,6,0,1,7
352.764,6,0,0,6
352.765,7,2,1,6
352.765,6,2,1,4
352.766,5,2,0,1
352.766,3,3,2,3
352.767,4,6,4,3
352.767,4,6,4,1
352.768,3,5,4,0
352.768,2,6,4,0
352.769,1,6,2,-3
352.77,0,5,0,-5
352.77,0,5,0,-5
352.771,0,6,2,-3
352.771,0,7,5,-1
352.772,1,9,7,1
352.772,1,8,8,2
352.773,1,5,5,2
352.774,1,4,4,2
352.774,0,2,5,2
352.775,0,0,3,2
352.775,0,0,-1,0
352.776,0,0,0,0
352.777,0,0,0,2
352.777,2,1,0,1
352.778,3,2,2,4
352.778,6,4,4,7
352.779,8,5,4,7
352.779,7,4,2,5
352.78,5,1,0,3
352.781,4,1,0,3
352.781,5,3,1,5
352.782,5,1,0,5
352.782,4,-1,-1,3
352.783,3,-2,-1,5
352.783,5,1,2,7
352.784,6,2,5,9
352.785,6,1,2,6
352.785,3,-1,0,3
352.786,3,2,1,2
352.786,3,3,2,1
352.787,2,3,1,0
352.787,2,4,2,0
352.788,4,8,6,2
352.789,3,8,7,1
352.789,2,7,6,0
352.79,0,6,5,-1
352.79,-1,4,1,-6
352.791,-3,3,0,-5
352.791,-2,4,1,-4
352.792,0,6,1,-2
352.793,1,4,0,-3
352.793,2,4,-1,-3
352.794,4,7,2,1
352.794,5,8,6,3
352.795,5,7,6,5
352.796,4,4,5,5
352.796,5,4,4,5
352.797,3,3,3,3
352.797,2,0,0,1
352.798,0,0,-1,2
352.798,2,0,1,4
352.799,4,1,1,5
352.799,5,2,2,5
352.8,4,1,2,4
352.801,3,0,0,4
352.801,4,2,2,6
352.802,4,0,1,6
352.802,4,-1,0,5
352.803,5,0,0,5
352.804,4,0,0,4
352.804,4,0,0,6
352.805,6,3,2,6
352.805,6,4,2,4
352.806,5,4,3,2
352.806,3,4,3,2
352.807,3,3,2,1
352.808,3,4,2,0
352.808,3,6,3,0
352.809,2,8,6,0
352.809,1,7,4,-1
352.81,0,6,3,-2
352.81,0,5,4,-2
352.811,0,6,4,-2
352.812,0,5,2,-3
352.812,-1,4,3,-2
352.813,-1,3,2,0
352.813,0,4,4,1
352.814,2,5,4,1
352.814,1,4,3,1
352.815,2,4,3,1
352.816,2,3,3,3
352.816,3,1,2,3
352.817,3,1,1,3
352.817,4,2,2,4
352.818,5,2,2,5
352.818,6,2,3,5
352.819,5,2,2,5
352.82,3,0,1,5
352.82,4,1,0,3
352.821,5,1,-1,2
352.821,4,1,-1,3
352.822,5,0,0,4
352.822,5,0,0,4
352.823,5,0,1,7
352.824,7,2,3,7
352.824,7,2,3,7
352.825,6,2,1,4
352.825,4,1,0,2
352.826,4,4,1,2
352.826,4,4,3,3
352.827,4,4,2,0
352.828,2,4,2,0
352.828,3,6,3,0
352.829,3,8,4,0
352.829,3,9,5,-1
352.83,0,7,4,-3
352.83,-1,6,3,-3
352.831,-1,6,5,-1
352.832,-1,4,3,-1
352.832,-2,3,3,-1
352.833,-2,1,2,0
352.833,-1,1,3,0
352.834,1,2,3,0
352.835,1,2,2,2
352.835,3,3,3,3
352.836,3,3,4,5
352.836,6,3,3,6
352.837,5,2,2,5
352.837,6,3,2,5
352.838,5,1,0,3
352.839,3,0,0,2
352.839,3,0,0,2
352.84,3,1,0,3
352.84,5,3,3,4
352.841,4,2,3,4
352.841,4,1,1,3
352.842,3,-1,0,4
352.843,4,0,0,5
352.843,6,1,1,6
352.844,8,1,1,7
352.844,7,2,1,6
352.845,8,4,2,4
352.845,6,4,2,4
352.846,4,5,4,3
352.847,4,4,1,0
352.847,1,3,0,0
352.848,1,3,2,-1
352.848,1,6,3,-1
352.849,1,6,4,-1
352.849,0,7,6,0
352.85,0,7,6,-1
352.851,0,6,4,-2
352.851,-1,4,3,-2
352.852,-1,3,1,-3
352.852,-1,3,1,-1
352.853,0,3,3,0
352.853,2,4,2,0
352.854,1,4,3,1
352.855,2,3,3,3
352.855,3,3,3,3
352.856,3,3,3,4
352.856,5,4,3,5
352.857,4,2,1,4
352.857,3,2,1,2
352.858,3,0,0,3
352.859,4,1,0,4
352.859,5,2,1,4
352.86,5,2,0,4
352.86,5,1,0,4
352.861,4,1,1,5
352.862,4,0,0,5
352.862,5,0,0,5
352.863,5,0,0,5
352.863,5,0,0,5
352.864,5,1,1,6
352.864,6,3,3,6
352.865,5,3,3,4
352.866,5,3,1,2
352.866,3,2,0,0
352.867,2,3,2,0
352.867,3,6,4,2
352.868,3,7,5,0
352.868,2,7,6,0
352.869,1,7,4,-2
352.87,0,6,5,-1
352.87,0,6,5,-1
352.871,-1,4,3,-3
352.871,-2,2,0,-4
352.872,-2,3,0,-5
352.872,-1,3,-1,-3
352.873,0,5,3,1
352.874,3,7,7,4
352.874,5,7,6,4
352.875,3,4,4,4
352.875,5,2,1,1
352.876,3,2,0,0
352.876,3,2,1,3
352.877,4,4,4,5
352.878,4,3,6,7
352.878,5,3,5,6
352.879,3,0,1,3
352.879,1,-2,0,3
352.88,2,0,3,6
352.88,2,0,0,4
352.881,3,-2,-4,0
352.882,3,-2,-4,0
352.882,3,-1,-3,3
352.883,6,1,0,6
352.883,8,4,2,7
352.884,9,5,5,10
352.884,10,6,5,7
352.885,7,4,2,3
352.886,5,3,1,0
352.886,2,3,1,0
352.887,2,4,2,1
352.887,2,4,2,0
352.888,3,6,3,0
352.889,1,6,3,-2
352.889,0,6,4,-2
352.89,0,6,5,-2
352.89,0,7,3,-3
352.891,0,6,4,-2
352.891,-1,4,2,-2
352.892,-1,4,2,-2
352.893,-1,3,2,0
352.893,0,4,3,0
352.894,2,5,5,2
352.894,1,4,4,3
352.895,2,4,5,4
352.895,3,2,4,4
352.896,4,2,2,3
352.897,2,0,0,1
352.897,2,1,0,2
352.898,3,0,0,3
352.898,4,1,0,3
352.899,5,2,1,4
352.899,5,2,1,4
352.9,5,2,1,5
352.901,6,3,3,5
352.901,5,2,2,6
352.902,4,0,0,6
352.902,5,0,0,5
352.903,5,0,-1,4
352.903,4,0,-1,4
352.904,5,0,0,5
352.905,7,4,2,5
352.905,7,4,3,5
352.906,7,7,6,5
352.906,3,4,5,3
352.907,2,3,2,0
352.907,0,2,2,0
352.908,1,4,3,-1
352.909,0,5,1,-4
352.909,0,7,3,-3
352.91,0,7,4,-2
352.91,0,7,4,-3
352.911,0,4,1,-4
352.911,-1,5,3,-2
352.912,0,5,4,0
352.913,1,5,5,1
352.913,2,4,3,1
352.914,2,4,3,2
352.914,4,5,2,2
352.915,3,4,3,2
352.915,3,3,2,2
352.916,2,2,2,3
352.917,3,1,1,4
352.917,3,2,2,4
352.918,3,1,0,4
352.918,4,1,0,3
352.919,4,0,0,2
352.92,4,2,0,4
352.92,6,2,0,5
352.921,6,3,1,5
352.921,7,3,3,6
352.922,5,0,1,7
352.922,5,0,0,5
352.923,5,0,1,6
352.924,4,0,1,5
352.924,4,0,1,5
352.925,4,1,1,4
352.925,5,2,0,2
352.926,4,4,1,1
352.926,3,5,2,1
352.927,2,4,2,0
352.928,3,6,4,0
352.928,2,7,4,0
352.929,3,8,5,0
352.929,1,7,5,-1
352.93,0,7,4,-2
352.93,-1,6,4,-2
352.931,-1,5,4,-1
352.932,0,5,4,0
352.932,0,1,1,-1
352.933,0,1,0,-1
352.933,0,2,1,0
352.934,0,1,0,-1
352.934,0,2,0,0
352.935,2,4,1,0
352.936,3,4,3,3
352.936,6,6,6,5
352.937,7,7,5,6
352.937,6,4,5,5
352.938,5,2,2,5
352.939,4,0,0,4
352.939,5,1,0,4
352.94,4,1,1,5
352.94,4,0,1,5
352.941,5,1,1,4
352.941,4,0,0,4
352.942,4,-1,0,5
352.943,4,-1,0,4
352.943,5,0,0,5
352.944,5,0,1,7
352.944,6,2,1,5
352.945,5,1,0,2
352.945,4,2,0,1
352.946,4,5,3,1
352.946,4,5,4,1
352.947,3,6,4,1
352.948,3,7,5,0
352.948,2,6,4,0
352.949,1,7,5,-1
352.949,0,6,3,-3
352.95,-1,5,3,-2
352.951,-1,5,4,-2
352.951,0,5,2,-2
352.952,0,5,5,0
352.952,0,4,3,0
352.953,0,3,3,0
352.953,1,4,4,0
352.954,1,2,2,1
352.955,1,3,3,2
352.955,1,3,3,3
352.956,3,2,2,3
352.956,3,2,1,3
352.957,3,0,0,1
352.957,3,1,0,2
352.958,5,3,2,5
352.959,6,2,1,5
352.959,6,2,0,4
352.96,6,2,1,5
352.96,7,3,1,5
352.961,6,1,0,4
352.961,5,0,0,4
352.962,4,0,0,5
352.963,4,0,0,4
352.963,5,0,-1,5
352.964,5,0,1,6
352.964,6,3,3,6
352.965,6,4,2,4
352.965,6,5,4,3
352.966,4,4,4,2
352.967,2,4,3,1
352.967,1,2,0,-2
352.968,1,4,1,-2
352.968,1,5,2,-3
352.969,1,7,5,-1
352.97,1,8,4,-2
352.97,0,8,5,-1
352.971,0,7,5,-1
352.971,0,5,5,-1
352.972,0,4,3,-1
352.972,-2,1,2,-1
352.973,0,2,2,0
352.974,0,2,0,0
352.974,2,2,1,1
352.975,3,3,2,2
352.975,5,6,5,5
352.976,5,4,4,5
352.976,5,3,4,4
352.977,3,2,3,5
352.978,3,0,2,4
352.978,3,0,1,4
352.979,2,0,1,4
352.979,5,1,0,4
352.98,5,1,0,3
352.98,4,0,-1,2
352.981,4,1,0,3
352.982,4,0,-1,4
352.982,6,1,0,6
352.983,7,1,0,6
352.983,7,1,1,7
352.984,6,2,1,7
352.984,7,3,2,6
352.985,6,4,3,4
352.986,5,4,1,2
352.986,4,4,2,0
352.987,2,4,1,0
352.987,1,3,2,0
352.988,1,5,4,0
352.988,1,7,5,0
352.989,0,7,4,-1
352.99,0,6,3,-2
352.99,0,6,5,-1
352.991,0,5,5,-1
352.991,0,5,4,-1
352.992,0,4,3,0
352.992,0,4,2,0
352.993,0,3,2,0
352.994,0,3,3,0
352.994,1,1,1,0
352.995,1,1,0,1
352.995,5,4,2,3
352.996,5,5,3,4
352.996,5,3,1,3
352.997,5,3,2,4
352.998,5,2,1,5
352.998,6,3,1,5
352.999,5,1,1,5
352.999,4,2,1,5
353,5,2,1,5
353.001,4,1,0,4
353.001,5,1,1,5
353.002,3,-1,-1,5
353.002,3,0,-1,5
353.003,4,0,0,5
353.003,5,-1,-3,3
353.004,7,0,-3,1
353.004,7,4,-1,2
353.005,8,7,4,5
353.006,8,8,6,6
353.006,6,8,7,5
353.007,5,7,5,2
353.007,3,5,4,0
353.008,0,3,3,-2
353.009,-2,4,6,-1
353.009,-1,4,5,-1
353.01,-1,5,4,-1
353.01,-1,4,3,-3
353.011,-2,2,-1,-8
353.011,-4,2,-1,-6
353.012,-2,4,2,-1
353.013,1,6,5,1
353.013,3,6,5,3
353.014,3,6,6,4
353.014,4,5,6,4
353.015,3,3,3,3
353.015,3,2,3,3
353.016,3,1,1,3
353.017,3,1,2,3
353.017,3,1,1,3
353.018,3,1,0,4
353.018,5,2,1,4
353.019,5,2,1,4
353.019,5,2,1,3
353.02,4,1,0,3
353.021,4,1,0,3
353.021,4,0,1,6
353.022,5,0,1,7
353.022,5,0,1,6
353.023,6,1,1,6
353.024,5,0,0,5
353.024,6,1,1,4
353.025,5,1,1,3
353.025,5,2,1,2
353.026,4,3,0,0
353.026,3,3,-2,-2
353.027,3,3,-2,-3
353.027,4,8,1,-2
353.028,6,11,5,0
353.029,6,13,8,0
353.029,3,12,9,1
353.03,3,9,9,0
353.03,-1,6,6,-2
353.031,-3,4,4,-2
353.031,-4,1,3,-3
353.032,-5,-1,0,-2
353.033,-3,0,0,0
353.033,0,2,2,0
353.034,2,3,2,1
353.034,3,3,2,2
353.035,3,4,4,5
353.036,5,4,3,4
353.036,5,4,5,5
353.037,4,3,4,6
353.037,5,2,3,5
353.038,4,0,1,5
353.038,4,0,-1,2
353.039,3,-1,-3,0
353.04,3,-1,-5,-1
353.04,4,2,0,2
353.041,6,3,1,4
353.041,6,2,1,5
353.042,6,1,1,6
353.042,6,2,3,6
353.043,7,3,3,7
353.044,7,3,2,7
353.044,8,4,3,7
353.045,7,4,3,4
353.045,4,4,3,2
353.046,4,3,2,1
353.046,2,3,2,0
353.047,0,3,2,0
353.048,1,5,3,0
353.048,1,5,2,-3
353.049,0,5,3,-3
353.049,0,5,1,-4
353.05,0,7,4,-2
353.05,0,6,3,-3
353.051,0,6,4,-1
353.052,0,5,4,0
353.052,0,4,3,0
353.053,1,4,3,1
353.053,2,3,4,3
353.054,2,3,3,3
353.054,3,4,5,4
353.055,3,3,3,3
353.056,2,0,0,1
353.056,1,0,0,3
353.057,3,1,2,3
353.057,3,1,2,3
353.058,3,0,1,4
353.058,3,0,0,3
353.059,4,0,-1,2
353.06,5,2,1,5
353.06,8,4,3,6
353.061,7,4,4,7
353.061,5,0,1,7
353.062,5,0,0,6
353.062,5,0,0,6
353.063,4,0,1,5
353.064,5,0,0,4
353.064,4,0,0,3
353.065,4,2,0,2
353.065,5,4,1,0
353.066,3,4,0,0
353.066,2,4,1,0
353.067,3,7,3,0
353.068,3,8,2,-1
353.068,3,8,3,-2
353.069,2,9,4,-2
353.069,1,8,6,0
353.07,1,8,5,-1
353.071,0,7,5,0
353.071,0,6,5,-1
353.072,-1,4,5,0
353.072,-2,3,8,3
353.073,-1,1,6,3
353.073,0,2,5,2
353.074,-1,0,3,1
353.075,-2,-1,2,1
353.075,0,-1,0,0
353.076,0,-1,-3,0
353.076,2,0,-3,0
353.077,4,1,-4,0
353.077,6,3,-3,1
353.078,8,7,4,6
353.079,11,9,8,10
353.079,12,9,7,10
353.08,9,5,4,6
353.08,7,2,0,3
353.081,3,0,-2,1
353.081,2,-3,-3,3
353.082,4,0,0,6
353.083,6,2,2,7
353.083,6,0,2,7
353.084,6,1,1,5
353.084,3,0,1,3
353.085,3,1,1,2
353.086,3,4,3,2
353.086,3,6,5,0
353.087,1,5,4,0
353.087,1,5,5,0
353.088,0,5,3,-1
353.088,0,5,3,-3
353.089,-1,5,2,-3
353.089,0,6,3,-2
353.09,0,5,3,-2
353.091,0,5,4,-1
353.091,1,7,5,0
353.092,1,5,4,0
353.092,0,4,3,0
353.093,1,3,3,1
353.094,2,3,3,2
353.094,2,3,3,2
353.095,3,3,2,2
353.095,3,3,2,3
353.096,3,2,0,2
353.096,3,0,0,2
353.097,4,3,1,3
353.098,4,2,1,3
353.098,3,2,2,5
353.099,5,2,1,5
353.099,6,2,1,4
353.1,6,2,1,5
353.1,6,4,2,5
353.101,5,0,1,5
353.102,4,0,2,7
353.102,6,0,2,7
353.103,5,0,0,4
353.103,3,-1,0,4
353.104,3,0,1,5
353.104,3,0,1,3
353.105,3,2,2,2
353.106,4,3,0,-1
353.106,3,3,-2,-2
353.107,4,7,2,0
353.107,6,11,6,1
353.108,5,9,4,0
353.108,2,9,6,0
353.109,3,9,6,0
353.11,0,7,5,-2
353.11,-1,5,3,-3
353.111,-2,3,2,-3
353.111,-1,4,3,-2
353.112,0,3,2,0
353.112,0,2,2,0
353.113,1,3,2,0
353.114,1,2,2,1
353.114,2,3,2,2
353.115,3,3,3,3
353.115,3,2,2,3
353.116,3,0,-1,0
353.117,3,0,-2,0
353.117,4,2,0,3
353.118,7,6,4,6
353.118,7,5,5,7
353.119,6,4,5,7
353.119,6,3,3,7
353.12,5,0,2,6
353.12,3,0,4,7
353.121,2,-1,2,7
353.122,1,-5,-1,4
353.122,1,-3,-1,3
353.123,2,-3,-2,2
353.123,3,-2,-3,2
353.124,5,1,-1,2
353.124,6,5,2,4
353.125,9,8,5,5
353.126,8,7,4,3
353.126,6,6,1,0
353.127,5,6,1,0
353.127,4,10,7,1
353.128,3,9,8,2
353.129,2,7,4,0
353.129,0,5,2,-4
353.13,-1,4,1,-5
353.13,-3,2,0,-5
353.131,-4,2,1,-4
353.131,-2,4,3,-1
353.132,0,4,3,0
353.133,1,4,3,0
353.133,1,6,5,1
353.134,1,4,4,2
353.134,2,4,5,3
353.135,2,2,3,3
353.135,4,3,3,4
353.136,4,3,3,4
353.137,4,3,4,5
353.137,5,3,3,6
353.138,6,0,0,3
353.138,3,0,0,2
353.139,3,0,0,2
353.139,3,0,0,3
353.14,5,0,0,4
353.141,6,3,2,7
353.141,6,1,0,6
353.142,6,0,-1,4
353.142,4,0,-1,4
353.143,5,0,1,7
353.143,6,3,4,7
353.144,7,3,3,6
353.145,6,3,2,3
353.145,4,3,1,0
353.146,2,4,1,0
353.146,3,4,0,0
353.147,3,5,2,-1
353.147,3,8,6,0
353.148,2,9,7,1
353.149,1,7,6,-1
353.149,-1,4,3,-3
353.15,-1,5,3,-4
353.15,-2,3,2,-3
353.151,-1,3,2,-2
353.152,-1,2,1,-2
353.152,0,3,4,1
353.153,2,5,5,3
353.153,3,5,4,2
353.154,1,3,3,3
353.154,3,3,3,3
353.155,3,4,5,6
353.156,4,2,3,4
353.156,3,0,0,3
353.157,2,0,0,2
353.157,2,1,0,3
353.158,4,0,0,2
353.158,4,0,-1,3
353.159,6,3,0,5
353.16,6,3,1,5
353.16,7,4,3,6
353.161,6,1,2,6
353.161,5,1,2,6
353.162,6,0,1,5
353.162,5,0,0,4
353.163,3,-1,-1,3
353.164,4,0,0,5
353.164,6,3,1,4
353.165,6,5,2,3
353.165,5,4,4,3
353.166,5,5,3,2
353.166,3,4,4,0
353.167,2,5,4,0
353.168,1,5,2,-2
353.168,1,7,4,-2
353.169,0,6,3,-3
353.169,-1,5,3,-4
353.17,-1,6,4,-2
353.17,0,6,4,-2
353.171,0,6,3,-1
353.172,0,4,4,0
353.172,0,3,3,0
353.173,0,3,2,1
353.173,2,4,3,1
353.174,2,2,2,2
353.174,2,2,2,2
353.175,2,2,3,4
353.176,4,3,2,4
353.176,4,2,2,4
353.177,4,2,1,3
353.177,3,1,2,4
353.178,5,1,2,4
353.179,4,1,0,3
353.179,5,2,1,3
353.18,4,1,0,3
353.18,4,1,0,3
353.181,4,0,0,4
353.181,5,0,0,5
353.182,6,0,0,6
353.182,7,1,2,6
353.183,6,1,2,6
353.184,7,3,3,5
353.184,5,1,1,4
353.185,4,3,2,2
353.185,4,3,2,1
353.186,3,3,0,0
353.187,1,3,1,-1
353.187,2,6,5,0
353.188,2,7,5,0
353.188,1,7,6,0
353.189,1,8,6,0
353.189,0,6,4,-3
353.19,-1,4,2,-4
353.191,-2,2,1,-4
353.191,-2,3,1,-3
353.192,0,5,3,0
353.192,1,4,3,1
353.193,2,5,4,2
353.193,3,4,2,1
353.194,2,4,2,2
353.195,4,3,1,3
353.195,4,4,1,2
353.196,4,2,0,1
353.196,4,3,3,4
353.197,5,3,3,5
353.197,4,2,2,5
353.198,5,2,4,7
353.199,5,2,3,5
353.199,4,0,0,2
353.2,2,0,-1,3
353.2,2,0,0,4
353.201,2,-1,0,5
353.202,4,0,2,8
353.202,6,2,3,8
353.203,5,0,1,6
353.203,5,0,0,3
353.204,4,1,0,3
353.204,4,3,2,3
353.205,4,3,1,1
353.206,4,4,0,-1
353.206,4,4,0,-1
353.207,3,5,1,-1
353.207,4,8,3,0
353.208,3,9,5,0
353.208,5,11,9,1
353.209,3,10,9,1
353.21,2,8,7,-1
353.21,-1,4,4,-2
353.211,-2,3,3,-2
353.211,-3,0,0,-2
353.212,-2,0,1,-1
353.212,0,1,0,-1
353.213,0,1,0,0
353.214,1,2,1,1
353.214,3,5,3,3
353.215,5,6,6,6
353.215,5,4,5,5
353.216,4,2,2,3
353.216,3,0,0,2
353.217,3,1,2,4
353.218,4,2,2,4
353.218,4,0,0,4
353.219,4,1,2,4
353.219,4,1,1,5
353.22,5,2,2,6
353.22,5,2,3,6
353.221,4,-1,0,4
353.222,3,-2,-3,3
353.222,4,0,-1,4
353.223,5,0,0,5
353.223,6,1,1,6
353.224,7,3,2,7
353.224,8,4,2,4
353.225,7,4,0,1
353.226,5,5,2,2
353.226,3,4,4,2
353.227,3,5,3,-1
353.227,0,6,4,-2
353.228,0,8,5,-2
353.228,0,7,4,-3
353.229,-1,7,4,-4
353.23,-3,5,3,-2
353.23,0,6,4,-2
353.231,0,6,5,0
353.231,0,5,5,1
353.232,1,4,4,1
353.232,1,4,4,2
353.233,2,4,4,2
353.234,2,2,2,1
353.234,2,2,1,1
353.235,1,0,0,1
353.235,3,1,0,3
353.236,4,3,2,4
353.236,4,3,3,5
353.237,5,3,2,4
353.238,4,1,1,4
353.238,3,0,1,5
353.239,4,1,2,5
353.239,4,0,0,4
353.24,5,1,0,3
353.24,4,0,0,3
353.241,3,-1,0,5
353.242,6,1,0,6
353.242,7,1,0,6
353.243,6,0,0,5
353.243,7,3,1,5
353.244,6,3,2,4
353.245,6,4,3,4
353.245,6,5,3,2
353.246,3,4,2,0
353.246,1,3,2,0
353.247,1,5,3,0
353.247,1,6,4,-1
353.248,0,7,4,-2
353.249,0,7,4,-2
353.249,0,5,3,-3
353.25,0,6,2,-3
353.25,0,6,4,-1
353.251,0,7,6,0
353.251,-1,3,4,0
353.252,0,4,5,1
353.253,1,4,6,3
353.253,1,2,2,1
353.254,0,0,1,0
353.254,0,0,-1,0
353.255,1,1,0,1
353.256,4,2,0,1
353.256,4,4,3,4
353.257,6,4,3,5
353.257,7,4,3,6
353.258,7,3,2,5
353.258,5,2,0,3
353.259,4,1,0,2
353.26,3,0,0,3
353.26,4,1,0,4
353.261,4,0,1,5
353.261,5,0,0,4
353.262,5,0,0,6
353.262,5,1,1,6
353.263,6,1,2,7
353.263,6,3,3,7
353.264,6,3,3,4
353.265,4,2,1,2
353.265,2,2,0,0
353.266,1,3,1,0
353.266,1,4,2,0
353.267,2,6,1,-2
353.268,1,6,2,-3
353.268,1,8,3,-2
353.269,2,9,6,0
353.269,2,10,8,0
353.27,1,7,5,0
353.27,0,5,2,-3
353.271,-2,4,2,-2
353.272,-1,1,1,-1
353.272,0,2,2,0
353.273,2,4,2,0
353.273,2,3,1,0
353.274,3,3,1,2
353.274,3,3,2,3
353.275,4,4,4,4
353.276,4,4,5,6
353.276,4,3,4,5
353.277,3,1,1,4
353.277,3,0,0,2
353.278,3,0,-1,3
353.278,4,1,0,4
353.28,5,2,1,5
353.28,6,4,4,7
353.28,5,3,4,7
353.281,3,-1,0,5
353.281,2,-3,-1,4
353.282,2,-1,0,5
353.282,4,0,0,5
353.283,4,0,-2,2
353.284,5,1,-1,1
353.284,5,3,0,2
353.285,6,6,5,5
353.285,6,7,6,5
353.286,5,6,5,4
353.286,4,5,3,0
353.287,2,5,3,-1
353.288,1,6,1,-4
353.288,0,5,2,-3
353.289,0,7,5,-1
353.289,0,9,7,-2
353.29,0,5,4,-2
353.29,-1,4,2,-3
353.291,-2,2,0,-3
353.292,-2,2,1,-1
353.292,0,3,2,1
353.293,2,6,5,3
353.293,4,6,5,4
353.294,4,5,5,4
353.294,3,3,3,4
353.295,4,2,3,4
353.296,3,1,1,3
353.296,3,0,1,3
353.297,3,0,0,3
353.297,3,0,0,3
353.298,3,0,0,3
353.298,4,1,2,5
353.299,4,1,1,4
353.3,5,1,1,4
353.3,4,0,0,3
353.301,3,-1,-3,2
353.301,5,0,-2,3
353.302,7,2,1,6
353.303,8,3,2,8
353.303,9,5,5,8
353.304,9,5,4,7
353.304,7,4,3,4
353.305,5,5,5,3
353.305,2,4,5,3
353.306,1,2,3,1
353.307,0,2,2,-2
353.307,-1,2,0,-5
353.308,-2,3,0,-4
353.308,-1,5,2,-3
353.309,0,6,3,-1
353.309,1,7,5,-1
353.31,1,8,4,-1
353.311,1,8,5,0
353.311,0,5,3,-1
353.312,0,3,2,0
353.312,0,3,2,1
353.313,1,4,4,2
353.313,2,3,3,3
353.314,3,2,2,3
353.315,3,2,2,3
353.315,4,3,2,4
353.316,4,2,1,4
353.316,3,2,2,4
353.317,4,2,2,4
353.318,4,1,0,3
353.318,4,1,1,4
353.319,5,2,1,4
353.319,5,2,1,5
353.32,5,1,0,3
353.32,3,0,-1,2
353.321,3,-1,0,4
353.321,4,0,0,5
353.322,7,2,1,5
353.323,5,0,0,5
353.323,6,2,2,6
353.324,7,3,3,5
353.324,7,5,4,5
353.325,7,5,2,3
353.326,4,4,3,2
353.326,4,4,3,2
353.327,2,4,2,-2
353.327,-1,2,0,-5
353.328,-2,5,2,-4
353.328,-1,6,5,-2
353.329,0,8,6,-2
353.329,0,6,4,-2
353.33,0,6,3,-4
353.331,-1,6,3,-2
353.331,0,5,2,0
353.332,2,5,4,2
353.332,3,5,3,1
353.333,4,4,1,0
353.334,3,4,3,3
353.334,4,5,5,5
353.335,5,5,7,7
353.335,5,2,3,5
353.336,3,1,2,3
353.336,1,0,1,2
353.337,0,-2,-1,1
353.338,0,-1,0,2
353.338,3,0,1,5
353.339,5,3,2,4
353.339,5,1,0,3
353.34,4,1,1,4
353.34,4,0,0,4
353.341,3,0,0,7
353.342,6,0,0,4
353.342,6,1,0,6
353.343,6,2,1,6
353.343,8,4,2,5
353.344,7,5,2,5
353.344,7,5,2,3
353.345,4,5,4,2
353.346,3,4,2,0
353.346,0,3,3,1
353.347,1,4,4,0
353.347,0,5,5,0
353.348,0,5,4,-1
353.349,0,5,2,-3
353.349,0,5,0,-6
353.35,-2,3,0,-5
353.35,-1,5,4,-2
353.351,0,7,5,0
353.351,1,5,5,2
353.352,2,5,4,1
353.353,1,4,4,1
353.353,1,3,2,2
353.354,2,2,2,3
353.354,3,3,1,1
353.355,3,1,0,0
353.355,3,3,1,3
353.356,5,3,1,3
353.357,4,1,0,3
353.357,4,2,0,3
353.358,5,2,2,6
353.358,6,3,2,6
353.359,6,3,2,5
353.359,5,2,1,5
353.36,4,1,0,4
353.361,4,0,0,4
353.361,4,-1,0,4
353.362,4,0,0,6
353.362,5,0,1,5
353.363,5,1,2,6
353.363,6,2,2,5
353.364,5,3,1,3
353.365,4,4,1,1
353.365,3,4,1,0
353.366,2,4,3,1
353.366,2,6,6,1
353.367,2,7,6,1
353.367,1,5,5,0
353.368,0,6,5,-1
353.369,0,6,4,-3
353.369,-1,5,2,-3
353.37,-2,3,0,-4
353.37,-2,3,0,-4
353.371,-1,4,0,-3
353.371,1,4,1,-1
353.372,3,6,4,1
353.373,4,8,6,3
353.373,3,4,4,3
353.374,4,4,2,2
353.374,3,3,3,3
353.375,3,2,3,4
353.376,4,2,1,3
353.376,4,2,1,4
353.377,4,3,2,4
353.377,4,1,1,3
353.378,4,0,0,2
353.378,3,0,-3,0
353.379,3,0,-1,1
353.38,5,3,2,5
353.38,7,3,3,7
353.381,6,2,3,8
353.381,5,0,1,6
353.382,4,-1,0,3
353.382,3,-1,0,4
353.383,5,0,0,4
353.383,6,1,0,3
353.384,5,3,0,2
353.385,5,5,3,2
353.385,5,7,5,4
353.386,5,7,6,2
353.386,3,7,7,2
353.387,0,5,4,-1
353.388,0,4,3,-2
353.388,-1,4,4,-2
353.389,-2,5,6,0
353.389,-2,4,4,-2
353.39,-2,2,2,-2
353.39,-1,4,2,-1
353.391,0,4,2,-1
353.392,0,3,2,0
353.392,1,4,2,0
353.393,2,4,4,2
353.393,4,5,5,3
353.394,4,4,4,3
353.394,3,2,2,3
353.395,3,2,3,4
353.396,3,2,4,6
353.396,4,2,3,5
353.397,3,1,2,3
353.397,2,0,-1,2
353.398,2,-1,-1,2
353.398,3,0,-1,2
353.399,4,0,-2,1
353.4,5,0,-3,1
353.4,6,2,-1,3
353.401,8,3,1,8
353.401,10,4,3,9
353.402,10,5,4,9
353.402,8,2,2,7
353.403,7,3,2,4
353.404,5,2,1,1
353.404,2,2,1,1
353.405,3,3,3,2
353.405,3,4,3,0
353.406,1,3,1,0
353.407,2,5,2,-1
353.407,0,5,3,-2
353.408,1,7,4,-2
353.408,0,7,4,-3
353.409,0,6,3,-3
353.409,-2,5,3,-3
353.41,0,6,4,-1
353.41,0,5,5,-1
353.411,0,4,3,0
353.412,0,3,3,1
353.412,1,4,3,1
353.413,1,2,1,0
353.413,1,2,3,2
353.414,2,3,2,3
353.415,3,3,3,4
353.415,4,2,2,4
353.416,5,3,2,4
353.416,5,2,2,5
353.417,5,3,2,5
353.417,5,2,3,7
353.418,6,1,2,6
353.419,5,0,1,5
353.419,4,0,0,3
353.42,2,-1,-1,2
353.42,2,-1,0,3
353.421,2,-1,-1,3
353.421,3,-1,-2,2
353.422,4,0,-2,3
353.423,5,1,0,5
353.423,8,7,3,6
353.424,9,7,4,6
353.424,8,8,5,4
353.425,6,7,5,3
353.425,4,4,3,1
353.426,1,4,3,1
353.427,1,5,3,0
353.427,1,6,3,-2
353.428,0,7,5,-2
353.428,-1,7,6,-2
353.429,0,7,6,-1
353.429,-2,4,3,-3
353.43,-2,2,1,-3
353.431,-3,2,1,-1
353.431,-1,1,1,0
353.432,1,3,1,0
353.432,2,3,1,0
353.433,2,4,2,2
353.433,4,4,3,4
353.434,5,5,4,5
353.435,5,4,5,6
353.435,5,3,3,5
353.436,4,2,1,3
353.436,4,1,0,2
353.437,3,0,0,2
353.437,3,0,0,3
353.438,4,1,0,3
353.439,5,2,1,5
353.439,6,3,2,5
353.44,5,2,2,5
353.44,3,0,0,5
353.441,4,-1,0,5
353.441,3,-1,-1,4
353.442,3,-1,-1,4
353.443,4,0,0,5
353.443,7,3,2,6
353.444,7,5,3,5
353.444,7,6,4,2
353.445,5,6,4,2
353.446,3,6,4,1
353.446,2,5,5,2
353.447,1,5,4,0
353.447,0,6,4,-1
353.448,0,6,3,-2
353.448,-1,4,3,-3
353.449,-1,5,3,-3
353.45,-1,5,4,-2
353.45,0,4,3,-2
353.451,-1,4,2,-2
353.451,0,3,1,0
353.452,1,4,2,1
353.452,2,4,3,1
353.453,2,4,4,3
353.454,3,3,3,3
353.454,4,3,2,2
353.455,4,3,3,4
353.455,4,2,2,3
353.456,4,2,1,4
353.457,4,2,1,4
353.457,5,2,2,5
353.458,5,1,2,5
353.458,5,1,0,2
353.459,3,0,0,2
353.459,4,1,0,3
353.46,5,1,0,4
353.46,3,-1,-1,4
353.461,5,0,0,6
353.462,6,2,1,7
353.462,6,2,3,8
353.463,7,2,3,6
353.463,5,1,1,4
353.464,3,2,3,4
353.465,5,4,3,3
353.465,3,3,1,0
353.466,0,1,0,-2
353.466,1,3,0,-3
353.467,2,6,1,-2
353.467,2,9,5,-1
353.468,2,10,6,-1
353.468,2,8,5,-2
353.469,0,6,2,-3
353.47,0,6,5,-1
353.47,0,7,7,1
353.471,0,5,5,0
353.471,-1,3,3,0
353.472,0,2,2,0
353.473,0,2,3,0
353.473,0,1,0,0
353.474,1,1,2,2
353.474,2,3,3,4
353.475,4,3,2,4
353.475,4,2,0,1
353.476,3,1,0,1
353.477,4,2,0,4
353.477,7,3,2,5
353.478,6,3,1,5
353.478,6,3,3,6
353.479,5,1,2,6
353.479,4,0,1,4
353.48,4,0,1,5
353.481,2,-1,0,5
353.481,3,-2,0,4
353.482,4,-1,0,4
353.482,4,-1,0,4
353.483,6,2,1,5
353.483,7,4,3,6
353.484,7,5,3,4
353.485,5,5,2,1
353.485,3,4,3,1
353.486,2,3,2,0
353.486,3,6,4,0
353.487,2,6,4,-1
353.488,1,6,4,-2
353.488,0,6,4,-2
353.489,0,6,5,-1
353.489,0,5,4,-2
353.49,-1,4,3,-2
353.49,-1,4,3,-2
353.491,-1,3,2,-1
353.492,0,3,1,0
353.492,1,4,2,1
353.493,1,3,2,1
353.493,1,2,1,2
353.494,3,4,4,4
353.494,5,4,3,4
353.495,4,3,2,4
353.496,6,4,2,3
353.496,5,2,0,2
353.497,4,1,1,4
353.497,5,2,2,5
353.498,4,1,1,4
353.498,4,1,1,5
353.499,5,2,1,4
353.5,5,2,2,4
353.5,4,0,0,3
353.501,3,-2,-1,5
353.501,4,-1,0,5
353.502,6,1,1,6
353.502,6,2,3,7
353.503,6,3,4,7
353.504,5,2,1,3
353.504,4,3,0,0
353.505,2,2,0,-1
353.505,3,3,0,0
353.506,3,5,2,0
353.506,4,7,2,0
353.507,3,9,6,0
353.508,3,9,6,-1
353.508,1,7,5,-1
353.509,0,7,6,-1
353.509,-1,5,4,-2
353.51,-1,4,3,-1
353.51,0,4,2,-2
353.511,-1,3,1,-2
353.512,-1,1,1,-1
353.512,0,2,2,0
353.513,1,2,3,2
353.513,3,4,3,3
353.514,4,3,3,3
353.514,4,3,1,4
353.515,5,4,4,4
353.516,6,6,7,8
353.516,6,4,6,8
353.517,4,0,1,4
353.517,0,-3,-2,0
353.518,0,-3,-2,1
353.518,1,-1,-1,2
353.519,4,1,0,3
353.52,6,2,0,5
353.52,7,1,0,5
353.521,8,2,0,6
353.521,8,2,0,5
353.522,7,2,0,5
353.523,6,2,1,5
353.523,6,4,3,5
353.524,5,5,4,3
353.524,4,4,2,1
353.525,2,4,2,0
353.525,1,5,3,0
353.526,2,5,4,-1
353.526,1,5,4,0
353.527,1,7,4,-1
353.528,0,6,4,-1
353.528,0,6,3,-2
353.529,0,7,5,0
353.529,0,6,4,-1
353.53,0,4,1,-3
353.531,0,1,-2,-6
353.531,0,2,0,-1
353.532,2,5,4,2
353.532,5,6,6,4
353.533,4,5,5,3
353.533,2,3,4,4
353.534,3,3,4,5
353.535,3,3,6,6
353.535,3,1,3,4
353.536,0,-1,-1,1
353.536,0,0,0,3
353.537,3,0,0,2
353.537,3,1,0,3
353.538,4,0,0,3
353.539,4,2,0,4
353.539,5,3,2,6
353.54,6,2,0,4
353.54,4,-1,-2,3
353.541,3,-1,-1,4
353.541,6,1,2,7
353.542,7,2,1,6
353.543,7,4,2,6
353.543,7,4,3,5
353.544,7,4,2,3
353.544,5,4,2,2
353.545,4,6,4,1
353.546,2,4,3,1
353.546,2,5,3,-1
353.547,0,5,3,-1
353.547,0,6,3,-2
353.548,0,5,3,-2
353.548,0,7,3,-3
353.549,-1,5,2,-4
353.549,0,5,3,-3
353.55,0,5,3,-1
353.551,0,5,3,0
353.551,1,4,3,0
353.552,1,3,3,0
353.552,1,3,3,2
353.553,2,3,3,2
353.553,3,3,3,4
353.554,4,3,3,4
353.555,4,3,4,4
353.555,3,2,2,3
353.556,2,0,1,3
353.556,3,0,0,3
353.557,3,0,0,3
353.558,3,0,0,3
353.558,5,1,0,2
353.559,4,1,0,3
353.559,6,2,-1,2
353.56,6,2,0,4
353.56,7,2,0,4
353.561,7,2,2,8
353.562,8,3,5,9
353.562,7,1,4,8
353.563,6,2,5,7
353.563,4,0,0,2
353.564,2,0,0,0
353.564,1,1,-1,-1
353.565,0,1,0,0
353.566,2,4,2,0
353.566,4,8,4,0
353.567,3,9,6,0
353.567,2,8,5,-1
353.568,0,7,3,-2
353.568,0,7,5,-1
353.569,0,7,6,0
353.57,0,5,4,-1
353.57,0,6,5,0
353.571,-1,3,2,0
353.571,-1,1,1,0
353.572,0,2,1,0
353.572,0,2,2,2
353.573,2,2,3,3
353.574,3,3,4,4
353.574,3,3,4,4
353.575,3,2,3,4
353.575,3,1,1,3
353.576,2,1,1,4
353.576,3,1,2,5
353.577,3,1,0,3
353.578,4,0,0,2
353.578,4,1,-1,2
353.579,4,1,0,2
353.579,5,2,0,4
353.58,5,1,1,6
353.581,5,0,0,6
353.581,7,1,2,7
353.582,7,2,1,6
353.582,6,1,0,5
353.583,6,3,2,4
353.583,6,3,2,3
353.584,5,5,3,3
353.585,2,2,1,1
353.585,2,3,2,0
353.586,1,4,2,0
353.586,1,6,4,0
353.587,2,7,5,0
353.587,2,6,2,-2
353.588,0,5,1,-4
353.589,0,5,2,-4
353.589,-1,5,3,-2
353.59,0,6,5,0
353.59,1,8,7,2
353.591,1,5,4,0
353.591,0,2,3,0
353.592,0,2,2,0
353.593,0,1,2,1
353.593,0,2,2,1
353.594,2,2,3,3
353.594,4,3,2,3
353.595,4,2,1,3
353.595,4,2,1,3
353.596,4,1,1,4
353.597,5,2,1,4
353.597,4,1,1,5
353.598,5,2,1,4
353.598,5,2,1,4
353.599,5,2,2,6
353.599,6,2,2,6
353.6,5,0,0,4
353.601,4,0,0,5
353.601,4,0,0,5
353.602,4,0,0,4
353.602,4,0,0,5
353.603,6,2,0,4
353.604,6,3,2,4
353.604,5,6,3,3
353.605,3,5,3,2
353.605,4,5,2,0
353.606,2,5,0,-2
353.606,1,6,2,-2
353.607,1,8,3,-2
353.608,1,8,5,0
353.608,1,7,5,0
353.609,0,7,6,-1
353.609,0,6,5,0
353.61,0,6,6,0
353.61,-1,4,6,1
353.611,-1,1,3,0
353.611,0,0,0,0
353.612,0,0,1,-1
353.613,0,0,0,0
353.613,1,0,0,0
353.614,2,3,3,3
353.614,5,4,4,5
353.615,6,4,3,5
353.615,5,4,3,5
353.616,4,2,3,5
353.617,4,1,1,4
353.617,4,1,0,4
353.618,5,1,1,4
353.618,5,1,0,2
353.619,3,0,-1,3
353.62,4,0,0,4
353.62,5,0,0,4
353.621,7,1,-2,4
353.621,7,1,-1,4
353.622,6,2,1,6
353.622,8,5,5,8
353.623,7,4,3,5
353.624,6,4,1,2
353.624,4,4,2,0
353.625,1,3,1,0
353.625,2,2,0,0
353.626,2,5,3,0
353.626,3,8,5,0
353.627,2,8,6,-1
353.628,1,6,4,-3
353.628,0,5,3,-3
353.629,0,6,4,-1
353.629,0,6,4,-1
353.63,0,5,3,-1
353.63,-1,3,2,-2
353.631,-1,3,2,0
353.632,0,2,2,1
353.632,2,3,3,1
353.633,2,3,2,1
353.633,3,3,1,1
353.634,3,4,3,3
353.634,4,3,2,4
353.635,4,4,6,7
353.636,7,4,5,6
353.636,3,0,1,3
353.637,0,-2,0,2
353.637,2,-1,0,3
353.638,4,2,1,4
353.638,5,1,0,4
353.639,6,2,3,5
353.64,5,1,1,5
353.64,4,0,1,6
353.641,5,1,3,8
353.641,5,0,1,6
353.642,3,0,-1,2
353.642,3,0,1,4
353.643,5,2,0,2
353.644,4,2,0,0
353.644,4,3,-1,0
353.645,5,6,0,0
353.645,5,5,0,0
353.646,5,10,6,2
353.647,5,11,11,4
353.647,5,9,9,2
353.648,2,7,5,0
353.648,1,7,6,0
353.649,0,4,4,-2
353.649,-4,0,0,-5
353.65,-5,0,0,-4
353.651,-4,0,-2,-4
353.651,-1,1,0,-2
353.652,0,4,0,-2
353.652,1,5,2,0
353.653,3,6,4,3
353.653,5,7,7,6
353.654,6,9,11,9
353.655,6,6,10,8
353.655,3,0,1,3
353.656,1,-2,-2,0
353.656,3,0,-1,2
353.657,5,1,0,2
353.658,4,0,-3,0
353.658,3,0,-1,2
353.659,5,3,2,6
353.659,8,6,4,8
353.66,7,3,2,7
353.66,5,0,0,5
353.661,4,0,0,5
353.662,5,0,2,6
353.662,5,0,2,7
353.663,6,0,0,3
353.663,3,0,0,1
353.664,3,2,0,1
353.664,3,4,2,2
353.665,4,6,4,2
353.666,4,6,1,-1
353.666,2,5,3,0
353.667,1,7,4,0
353.667,1,7,5,0
353.668,0,7,6,0
353.668,0,6,5,-2
353.669,-1,5,4,-3
353.67,-2,4,4,-1
353.67,0,4,4,0
353.671,-1,3,2,-1
353.671,0,2,1,0
353.672,0,3,2,1
353.672,1,4,3,1
353.673,3,4,2,1
353.674,3,3,1,2
353.674,3,3,3,2
353.675,3,3,3,4
353.675,4,2,3,5
353.676,4,2,2,5
353.676,4,2,1,4
353.677,4,1,0,4
353.678,4,1,1,5
353.678,4,1,1,4
353.679,4,0,1,5
353.679,5,1,1,5
353.68,4,-1,0,5
353.68,4,0,0,6
353.681,6,0,0,5
353.682,4,0,0,5
353.682,6,0,0,4
353.683,5,2,0,2
353.683,5,3,1,2
353.684,5,6,4,3
353.684,4,5,2,1
353.685,3,5,3,1
353.686,3,6,4,1
353.686,3,7,5,0
353.687,2,7,5,-1
353.687,0,6,2,-4
353.688,-1,5,1,-4
353.689,0,6,3,-3
353.689,-1,6,4,0
353.69,0,6,5,-1
353.69,0,4,4,-1
353.691,-1,2,2,0
353.691,0,3,4,1
353.692,1,3,5,3
353.692,1,1,4,2
353.693,1,1,2,2
353.694,3,1,0,2
353.694,3,2,0,3
353.695,4,0,-1,2
353.695,5,2,0,2
353.696,5,3,2,5
353.696,7,4,3,6
353.697,7,3,1,5
353.698,6,3,2,4
353.698,5,2,1,5
353.699,4,1,0,4
353.699,4,0,0,3
353.7,3,0,0,4
353.701,4,-1,0,4
353.701,6,1,1,5
353.702,6,1,1,5
353.702,6,4,3,6
353.703,7,5,4,5
353.703,5,4,4,3
353.704,3,4,2,1
353.704,2,3,2,0
353.705,1,2,1,-1
353.706,1,4,3,0
353.706,0,5,4,0
353.707,0,6,4,0
353.707,0,5,5,0
353.708,0,6,6,0
353.709,0,7,7,0
353.709,0,6,4,-2
353.71,-1,3,2,-5
353.71,-3,3,3,-1
353.711,-1,3,3,0
353.711,0,2,2,0
353.712,1,2,1,0
353.713,1,0,-3,-2
353.713,1,2,0,0
353.714,3,2,0,0
353.714,3,4,2,4
353.715,8,9,7,8
353.716,10,10,8,9
353.716,9,5,2,5
353.717,4,0,-2,0
353.717,2,-1,-2,2
353.718,4,0,0,6
353.718,6,2,1,6
353.719,7,1,0,6
353.72,6,0,0,6
353.72,5,-4,-4,3
353.721,4,-2,-4,3
353.721,4,1,2,6
353.722,6,4,9,11
353.722,7,4,6,8
353.723,3,0,0,3
353.724,1,0,0,1
353.724,1,0,1,3
353.725,4,2,0,2
353.725,4,2,1,4
353.726,7,7,4,5
353.726,8,9,6,3
353.727,5,7,2,-3
353.727,0,2,-5,-11
353.728,-2,3,-4,-12
353.729,-2,10,7,-3
353.729,0,11,9,-3
353.73,-1,13,10,-3
353.73,0,16,14,-2
353.731,-1,11,11,-2
353.732,-5,1,3,-1
353.732,-4,-2,0,0
353.733,0,0,2,2
353.733,2,2,4,5
353.734,3,2,3,5
353.734,3,2,2,6
353.735,5,2,3,7
353.736,7,4,7,9
353.736,6,4,5,6
353.737,3,0,0,3
353.737,3,0,0,3
353.738,3,0,0,3
353.738,3,-2,-2,2
353.739,1,-8,-8,0
353.74,0,-9,-4,7
353.74,6,-6,-2,13
353.741,11,-7,-10,4
353.741,6,-10,-14,1
353.742,8,-4,-6,9
353.742,17,5,-1,8
353.743,13,4,-2,2
353.744,7,3,-4,-8
353.744,1,14,13,0
353.745,5,27,32,15
353.745,12,28,30,14
353.746,12,23,19,2
353.746,2,14,7,-9
353.747,-5,6,1,-14
353.748,-9,1,-4,-15
353.748,-11,-3,-7,-13
353.749,-8,0,0,-3
353.749,-1,3,6,5
353.75,3,5,9,10
353.75,8,7,5,0
353.751,-2,0,1,-1
353.752,-5,-3,0,0
353.752,-1,-2,-1,-1
353.753,-2,-4,-3,-1
353.753,0,-4,-3,-1
353.754,0,0,2,4
353.754,6,5,7,8
353.755,8,7,7,7
353.756,8,7,5,4
353.756,4,5,5,3
353.757,2,6,9,8
353.757,5,3,5,9
353.758,5,-4,-2,10
353.759,7,-6,-5,6
353.759,3,-12,-12,1
353.76,1,-13,-14,4
353.76,8,-8,-8,11
353.761,18,1,-2,16
353.762,21,1,-3,17
353.762,22,2,-6,9
353.763,14,2,-3,0
353.763,3,4,9,10
353.764,7,10,17,15
353.764,12,15,15,9
353.765,7,15,18,9
353.765,4,10,13,4
353.766,-2,0,1,-3
353.767,-9,-10,-11,-14
353.767,-12,-12,-20,-23
353.768,-11,0,-9,-20
353.768,-1,22,15,-9
353.769,2,31,18,-18
353.769,-12,21,14,-21
353.77,-19,11,9,-18
353.771,-17,11,14,-5
353.771,-7,10,11,-4
353.772,-9,0,2,-3
353.772,-7,-1,5,5
353.773,0,-1,4,10
353.773,7,3,9,17
353.774,17,8,6,15
353.775,15,4,-1,6
353.775,11,4,0,5
353.776,12,8,3,6
353.776,11,11,10,10
353.777,7,0,-1,0
353.778,1,-3,-7,-2
353.778,1,0,0,6
353.779,7,3,5,8
353.779,3,-1,4,9
353.78,4,0,7,14
353.78,7,0,2,7
353.781,4,0,0,0
353.781,-4,-10,-12,-9
353.782,-7,-12,-14,-4
353.783,0,-7,-13,-3
353.783,3,-4,-8,5
353.784,15,11,10,20
353.784,25,20,23,32
353.785,27,20,31,38
353.786,25,7,7,13
353.786,5,-5,-9,-7
353.787,-8,-14,-18,-17
353.787,-14,-19,-27,-24
353.788,-11,-8,-20,-25
353.788,-8,5,-5,-17
353.789,-3,14,10,0
353.79,7,22,22,12
353.79,10,21,26,16
353.791,9,13,18,7
353.791,-2,-1,1,-2
353.792,-9,-6,-2,-3
353.792,-5,-3,1,1
353.793,-1,-3,-2,3
353.794,4,-1,-2,7
353.794,13,5,-1,6
353.795,19,22,16,14
353.795,19,25,17,5
353.796,0,0,-1,-9
353.796,-17,-19,-15,-15
353.797,-17,-19,-12,-6
353.798,-5,-5,3,15
353.798,15,7,9,18
353.799,20,16,17,17
353.799,12,7,7,8
353.8,2,-3,-2,1
353.8,2,0,-2,1
353.801,5,2,-5,-4
353.802,3,3,-7,-7
353.802,5,11,4,1
353.803,6,9,5,3
353.803,8,9,5,2
353.804,6,9,5,2
353.804,3,7,11,12
353.805,9,4,6,12
353.806,11,5,5,9
353.806,5,-1,-2,-1
353.807,-6,-11,-10,-7
353.807,-6,-8,-5,-1
353.808,1,-1,-6,-6
353.809,2,4,-5,-5
353.809,7,11,2,2
353.81,14,19,9,4
353.81,11,15,4,-9
353.811,-8,6,6,-9
353.811,-13,3,11,0
353.812,-9,1,11,3
353.813,-10,-10,-6,-12
353.813,-21,-18,-12,-12
353.814,-8,1,9,9
353.814,9,15,22,21
353.815,21,23,21,15
353.815,16,22,22,14
353.816,12,17,19,17
353.817,11,5,7,12
353.817,5,-10,-17,-11
353.818,-9,-17,-25,-19
353.818,-9,-2,-3,-1
353.819,0,2,5,10
353.819,7,-1,4,14
353.82,7,-8,-5,6
353.821,2,-14,-13,1
353.821,6,-4,-4,10
353.822,15,3,-1,10
353.822,19,8,-8,-5
353.823,10,11,-7,-14
353.823,2,11,-3,-12
353.824,-2,12,11,1
353.825,1,13,23,18
353.825,13,17,22,18
353.826,14,16,19,16
353.826,8,2,0,-4
353.827,-15,-22,-23,-22
353.828,-26,-28,-22,-9
353.828,-7,-11,-6,3
353.829,5,2,10,17
353.829,14,12,18,23
353.83,18,8,6,12
353.83,12,2,-4,0
353.831,3,-3,-16,-14
353.832,-2,1,-6,-3
353.832,7,13,11,10
353.833,16,22,19,9
353.833,13,25,20,6
353.834,14,34,31,13
353.834,13,28,19,-6
353.835,-7,13,9,-16
353.836,-20,-1,2,-15
353.836,-21,-10,-1,-8
353.837,-15,-8,3,4
353.837,-6,-13,-10,-5
353.838,-9,-17,-18,-12
353.838,-11,-16,-13,-4
353.839,-2,-8,-6,2
353.839,1,-2,4,14
353.84,10,3,7,17
353.841,16,10,11,17
353.841,15,7,10,18
353.842,17,10,10,16
353.842,15,1,-11,-7
353.843,0,-14,-34,-25
353.844,-4,-7,-21,-8
353.844,11,7,0,8
353.845,16,6,2,14
353.845,19,6,-3,5
353.846,15,13,7,11
353.846,18,22,22,18
353.847,17,21,22,12
353.848,5,11,16,5
353.848,-3,4,13,5
353.849,-4,1,9,3
353.849,-4,-2,-1,-7
353.85,-11,-9,-12,-20
353.85,-17,-6,-4,-10
353.851,-3,15,13,-2
353.852,6,26,20,1
353.852,2,14,9,1
353.853,3,7,0,-9
353.853,-13,-9,-8,-12
353.854,-15,-13,-6,-2
353.854,-3,-1,4,10
353.855,10,9,12,13
353.856,11,3,0,2
353.856,2,-3,-2,2
353.857,0,-7,-6,0
353.857,0,-6,-4,3
353.858,5,-2,-2,8
353.858,10,1,-3,2
353.859,4,3,8,15
353.86,13,7,10,15
353.86,15,15,16,13
353.861,13,16,18,13
353.861,9,9,11,10
353.862,6,4,2,0
353.862,-2,-5,-10,-11
353.863,-9,-14,-23,-23
353.864,-10,-6,-11,-9
353.864,1,7,7,12
353.865,14,10,7,11
353.865,11,6,4,6
353.866,8,5,0,0
353.867,3,6,0,-6
353.867,-1,8,6,-1
353.868,0,8,6,-1
353.868,0,6,2,-7
353.869,-2,8,7,-1
353.869,2,11,9,-1
353.87,0,9,8,-1
353.871,-1,3,3,-1
353.871,-1,0,-2,-3
353.872,0,1,2,5
353.872,6,4,4,5
353.873,3,-1,0,6
353.873,4,-2,0,7
353.874,8,1,2,8
353.875,9,3,2,5
353.875,6,0,-2,0
353.876,1,0,0,3
353.876,4,1,2,6
353.877,5,1,1,4
353.877,2,0,3,5
353.878,2,0,0,3
353.879,1,0,1,2
353.879,0,0,2,6
353.88,4,0,3,8
353.88,7,1,1,7
353.881,4,-2,-2,5
353.882,5,-3,0,9
353.882,10,2,3,12
353.883,13,8,9,15
353.883,15,9,4,3
353.884,3,0,-3,-4
353.884,-2,-5,-7,-4
353.885,-1,-4,-3,1
353.885,8,10,4,0
353.886,8,17,9,-7
353.887,-5,11,8,-4
353.887,-4,3,-4,-13
353.888,-2,7,-4,-17
353.888,-4,12,1,-16
353.889,-5,16,10,-8
353.889,-1,25,28,6
353.89,0,16,16,-3
353.891,-8,3,2,-11
353.891,-11,2,11,8
353.892,1,2,16,25
353.892,15,0,4,18
353.893,12,-5,-5,9
353.893,8,-7,-11,0
353.894,-2,-20,-26,-18
353.895,-17,-21,-20,-9
353.895,0,0,4,13
353.896,21,23,26,32
353.896,34,30,27,29
353.897,26,15,5,1
353.897,0,-6,-10,-10
353.898,-7,-7,-9,-5
353.899,-1,-6,-12,-5
353.899,0,-9,-15,-8
353.9,2,0,-2,1
353.9,12,22,20,9
353.901,8,21,29,16
353.902,2,0,6,6
353.902,-2,-9,-7,-1
353.903,0,-5,-6,1
353.903,3,-3,-6,-1
353.904,0,-5,-7,-1
353.904,1,0,3,8
353.905,11,14,16,17
353.906,16,16,12,7
353.906,7,7,-1,-9
353.907,-5,1,-7,-22
353.907,-14,2,-1,-17
353.908,-10,12,12,-3
353.908,0,20,21,8
353.909,8,20,20,8
353.91,4,8,7,1
353.91,0,0,0,0
353.911,0,0,-2,-3
353.911,-2,-2,-5,-4
353.912,-2,-6,-8,-2
353.913,2,-4,-9,-2
353.913,5,5,3,9
353.914,13,14,18,20
353.914,13,8,9,9
353.915,0,-8,-8,-7
353.915,-10,-12,-10,-7
353.916,-7,-5,-3,0
353.917,1,2,4,8
353.917,11,10,12,15
353.918,16,13,12,16
353.918,17,11,6,10
353.919,11,5,1,5
353.919,4,-4,-6,0
353.92,0,-5,-5,0
353.921,1,-1,1,7
353.921,7,0,-2,0
353.922,-1,-4,-3,0
353.922,0,-2,0,1
353.923,2,0,0,0
353.923,3,5,3,0
353.924,2,8,7,4
353.924,6,10,9,5
353.925,8,12,10,8
353.926,11,11,8,6
353.926,10,13,6,-1
353.927,2,10,6,-4
353.927,-1,7,3,-5
353.928,-6,-2,-2,-7
353.929,-7,-4,-3,-1
353.929,0,1,0,0
353.93,0,1,2,0
353.93,-1,2,0,-3
353.931,-3,2,1,-2
353.931,-2,1,1,-3
353.932,-2,2,3,3
353.933,3,5,6,8
353.933,7,0,-4,-1
353.934,2,0,-2,0
353.934,5,5,2,5
353.935,7,8,8,10
353.935,10,9,13,16
353.936,13,7,9,14
353.937,9,0,-1,3
353.937,3,-2,-2,1
353.938,2,-4,-8,-2
353.938,1,-3,-8,-3
353.939,2,0,-3,0
353.939,3,-1,-5,-3
353.94,0,2,4,8
353.941,9,9,13,18
353.941,15,5,3,9
353.942,7,0,-1,6
353.942,4,-1,1,7
353.943,5,0,0,5
353.944,5,0,-2,4
353.944,9,5,3,8
353.945,15,12,5,7
353.945,15,20,15,6
353.946,8,17,14,-2
353.946,-7,2,-2,-20
353.947,-21,-7,-9,-24
353.948,-22,-7,-7,-19
353.948,-16,-2,0,-6
353.949,-4,8,11,5
353.949,8,18,19,11
353.95,9,15,15,10
353.95,7,9,9,6
353.951,4,2,0,-4
353.952,-5,-3,-6,-10
353.952,-9,-4,-6,-9
353.953,-5,1,0,-4
353.953,1,8,5,1
353.954,5,11,13,14
353.954,12,9,13,18
353.955,14,8,9,16
353.956,11,2,1,9
353.956,9,0,-3,3
353.957,4,-1,-4,-3
353.957,-4,-6,-6,-4
353.958,-4,-4,-1,4
353.958,4,0,2,10
353.959,9,0,2,10
353.96,7,-3,-6,0
353.96,0,-8,-7,1
353.961,2,-2,0,8
353.961,10,2,0,6
353.962,11,6,0,3
353.962,11,7,-1,2
353.963,11,9,2,6
353.964,12,11,9,9
353.964,9,10,13,12
353.965,7,5,4,1
353.965,-2,-1,-3,-9
353.966,-11,-3,0,-6
353.966,-7,1,4,-2
353.967,-1,7,8,0
353.968,2,13,12,2
353.968,3,12,9,-2
353.969,0,8,5,-5
353.969,-5,3,2,-6
353.97,-5,2,4,0
353.971,-1,2,3,1
353.971,1,0,0,0
353.972,1,-2,-4,0
353.972,1,-2,-4,-2
353.973,0,-2,-4,0
353.973,3,3,3,5
353.974,8,8,9,10
353.975,12,10,6,6
353.975,6,4,0,-2
353.976,0,1,0,0
353.976,1,2,1,2
353.977,5,6,7,9
353.977,8,5,8,10
353.978,7,3,5,8
353.979,5,0,2,6
353.979,3,-2,0,6
353.98,3,-5,-4,4
353.98,2,-4,-4,2
353.981,2,-4,-3,4
353.981,4,-1,1,7
353.982,6,0,0,6
353.983,7,0,-3,2
353.983,10,7,0,2
353.984,12,12,3,3
353.984,10,11,5,2
353.985,6,12,11,5
353.985,2,6,5,-1
353.986,0,5,3,-4
353.987,-2,6,4,-5
353.987,-5,2,0,-7
353.988,-5,3,1,-6
353.988,-3,6,4,-1
353.989,1,9,7,1
353.989,3,7,3,-4
353.99,-1,2,1,0
353.991,2,5,3,3
353.991,6,5,1,0
353.992,2,2,0,-2
353.992,0,1,0,0
353.993,0,0,1,0
353.993,0,1,4,5
353.994,4,5,7,10
353.995,8,5,6,9
353.995,7,2,2,6
353.996,3,-2,-1,3
353.996,2,-2,-1,6
353.997,6,1,0,4
353.997,5,6,7,9
353.998,9,7,6,9
353.999,7,0,-3,1
353.999,0,-7,-10,-4
354,-2,-6,-7,0
354,4,2,1,7
354.001,10,6,6,12
354.001,12,5,1,5
354.002,6,0,-1,2
354.003,4,3,2,5
354.003,7,10,9,8
354.004,6,8,7,4
354.004,2,5,7,3
354.005,1,5,4,-3
354.005,-2,1,0,-6
354.006,-3,3,0,-8
354.007,-3,5,1,-6
354.007,-2,6,3,-4
354.008,0,7,3,-3
354.008,0,9,7,0
354.009,1,8,5,-2
354.009,0,4,1,-2
354.01,0,3,0,-2
354.011,2,6,2,0
354.011,5,8,5,3
354.012,6,11,13,10
354.012,6,5,9,7
354.013,2,0,1,2
354.014,0,-1,0,2
354.014,0,-4,-8,-5
354.015,-2,-4,-5,-1
354.015,1,0,2,5
354.016,6,3,7,12
354.016,8,2,3,9
354.017,9,3,0,4
354.018,5,0,-2,3
354.018,4,-1,-1,4
354.019,4,-1,0,8
354.019,6,0,3,11
354.02,9,0,-2,6
354.02,8,0,-4,4
354.021,6,0,-1,6
354.022,7,1,1,6
354.022,6,3,3,4
354.023,5,6,5,3
354.023,5,7,6,4
354.024,4,6,6,3
354.024,3,5,4,1
354.025,2,6,4,-1
354.026,0,7,5,-2
354.026,0,7,5,-4
354.027,-3,6,5,-3
354.027,-3,5,7,0
354.028,-2,5,6,0
354.028,-2,4,4,-3
354.029,-4,2,2,-4
354.03,-6,0,0,-3
354.03,-3,1,0,-2
354.031,0,2,1,0
354.031,1,4,3,1
354.032,4,4,2,2
354.032,4,4,1,2
354.033,5,5,2,4
354.034,6,4,0,2
354.034,7,5,0,2
354.035,6,5,0,1
354.035,5,3,0,2
354.036,6,5,5,7
354.037,9,7,8,10
354.037,8,4,6,9
354.038,5,2,4,7
354.038,3,-1,3,7
354.039,0,-4,3,8
354.039,0,-4,3,9
354.04,1,-7,-2,4
354.041,0,-8,-6,0
354.041,0,-7,-9,-2
354.042,3,-2,-8,-2
354.042,6,5,0,3
354.043,11,15,15,14
354.043,12,15,18,14
354.044,8,4,0,-1
354.045,0,2,0,-3
354.045,0,2,-2,-5
354.046,1,4,-3,-6
354.046,4,8,-4,-8
354.047,4,13,4,-3
354.047,7,16,10,0
354.048,4,8,0,-7
354.049,-2,4,-2,-10
354.049,-3,2,-5,-10
354.05,-1,4,-2,-5
354.05,2,6,0,-3
354.051,3,7,4,2
354.051,6,15,21,18
354.052,10,12,20,18
354.053,6,3,6,6
354.053,1,0,0,1
354.054,0,0,2,1
354.054,-1,-4,-2,-1
354.055,-3,-3,2,6
354.055,1,3,14,18
354.056,8,0,1,5
354.057,0,-7,-8,-5
354.057,-8,-11,-9,-5
354.058,-5,-6,0,4
354.058,0,-1,6,11
354.059,5,0,4,12
354.059,8,3,7,13
354.06,8,1,4,9
354.061,4,-4,-1,7
354.061,7,0,0,7
354.062,11,5,1,6
354.062,11,5,-2,1
354.063,7,2,-9,-6
354.063,5,4,-4,-4
354.064,6,6,-2,-2
354.065,7,10,1,-1
354.065,9,17,12,5
354.066,9,18,14,4
354.066,4,12,9,-1
354.067,-1,6,4,-4
354.068,-3,5,4,-5
354.068,-4,4,3,-6
354.069,-6,2,3,-6
354.069,-7,1,2,-3
354.07,-4,6,12,5
354.07,0,8,19,12
354.071,-1,1,12,7
354.072,-6,-5,4,2
354.072,-7,-9,-4,-1
354.073,-7,-11,-11,-7
354.073,-4,-9,-16,-9
354.074,1,-1,-13,-5
354.074,9,3,-11,-3
354.075,15,13,1,7
354.076,22,17,3,7
354.076,21,14,-1,2
354.077,17,14,4,8
354.077,16,14,10,15
354.078,17,10,8,12
354.078,11,0,-4,4
354.079,7,0,-1,7
354.08,11,8,11,14
354.08,8,2,8,9
354.081,-3,-8,0,3
354.081,-6,-13,-9,-4
354.082,-7,-10,-6,-3
354.082,-5,-5,0,2
354.083,0,3,12,11
354.084,5,11,21,17
354.084,4,5,10,4
354.085,-3,0,2,-5
354.085,-8,-1,0,-7
354.086,-8,-3,-7,-12
354.086,-4,2,-4,-8
354.087,1,12,10,4
354.088,7,14,12,5
354.088,5,9,6,0
354.089,1,6,0,-5
354.089,-3,0,-3,-6
354.09,0,2,-3,-5
354.091,2,7,1,-3
354.091,3,10,7,3
354.092,4,9,10,5
354.092,3,7,8,5
354.093,3,5,7,7
354.093,3,2,4,4
354.094,0,0,0,2
354.095,0,-1,0,4
354.095,3,0,3,7
354.096,7,1,1,6
354.096,7,2,-1,2
354.097,4,0,-2,2
354.097,5,0,-2,4
354.098,6,0,-5,2
354.099,8,1,-2,4
354.099,9,3,1,9
354.1,9,1,1,7
354.1,8,0,1,8
354.101,7,0,2,8
354.101,7,2,4,8
354.102,7,3,3,5
354.103,4,1,1,0
354.103,1,1,0,0
354.104,2,3,2,1
354.104,3,5,3,0
354.105,2,6,2,-1
354.105,0,6,3,-2
354.106,0,6,4,-2
354.107,0,7,5,-1
354.107,0,9,7,-1
354.108,0,5,4,-3
354.108,-1,4,3,-4
354.109,-3,4,3,-2
354.109,-2,3,4,0
354.11,0,4,5,1
354.111,1,3,3,1
354.111,1,1,2,1
354.112,2,3,5,4
354.112,3,3,5,5
354.113,3,2,3,3
354.113,0,-1,1,2
354.114,1,-1,0,2
354.115,3,0,0,3
354.115,5,2,1,5
354.116,6,0,-1,3
354.116,5,0,-2,2
354.117,6,1,-2,3
354.118,8,6,5,9
354.118,9,7,10,13
354.119,7,1,4,10
354.119,5,-2,0,6
354.12,4,-2,-1,5
354.12,5,-1,-2,3
354.121,3,-3,-5,0
354.121,3,0,-2,1
354.122,5,4,1,4
354.123,9,9,6,5
354.123,8,8,6,4
354.124,5,6,5,2
354.124,3,4,0,-3
354.125,0,4,0,-4
354.126,1,6,0,-4
354.126,2,8,3,-2
354.127,1,9,9,2
354.127,1,10,13,6
354.128,1,4,4,0
354.128,-2,1,0,-6
354.129,-7,-2,-2,-7
354.13,-7,-3,-3,-6
354.13,-3,1,0,-1
354.131,1,6,3,0
354.131,5,11,9,6
354.132,9,13,11,7
354.132,5,7,6,3
354.133,2,3,4,3
354.134,1,1,3,4
354.134,2,1,2,3
354.135,2,-1,-1,1
354.135,1,-5,-9,-4
354.136,1,-3,-6,0
354.136,5,4,3,8
354.137,10,10,15,17
354.138,12,10,19,21
354.138,9,-1,0,3
354.139,0,-11,-12,-5
354.139,-3,-9,-10,-2
354.14,0,-4,-3,3
354.14,5,0,1,7
354.141,9,5,4,8
354.142,10,6,6,9
354.142,9,4,2,4
354.143,5,4,2,2
354.143,3,3,2,1
354.144,3,4,3,2
354.145,5,8,6,2
354.145,5,10,8,1
354.146,2,7,5,-2
354.146,-1,3,2,-6
354.147,-4,4,3,-3
354.147,-3,5,7,-1
354.148,-1,4,2,-5
354.148,-3,2,-1,-7
354.149,-3,1,-2,-5
354.15,0,2,-1,-2
354.15,3,7,3,2
354.151,7,11,7,5
354.151,8,10,10,8
354.152,6,3,0,0
354.152,2,-3,-10,-6
354.153,2,2,-2,0
354.154,5,8,11,11
354.154,7,7,11,12
354.155,6,3,9,11
354.155,4,0,2,6
354.156,2,-3,-5,-1
354.157,0,-2,-2,0
354.157,0,-1,-1,2
354.158,3,0,2,6
354.158,6,3,4,10
354.159,11,3,0,6
354.159,7,-2,-10,-3
354.16,2,-2,-9,-2
354.161,5,1,-1,6
354.161,12,10,9,14
354.162,13,9,6,7
354.162,7,4,2,1
354.163,0,1,5,2
354.163,-1,0,2,1
354.164,0,2,3,1
354.165,3,7,5,1
354.165,2,6,1,-5
354.166,-2,3,0,-7
354.166,-1,6,3,-2
354.167,0,10,10,2
354.167,3,12,13,4
354.168,2,7,7,-1
354.169,-3,2,2,-4
354.169,-5,0,0,-3
354.17,-3,0,1,-1
354.17,0,3,3,0
354.171,1,3,3,2
354.172,2,3,2,1
354.172,2,2,2,2
354.173,2,2,1,3
354.173,3,2,3,4
354.174,4,2,3,5
354.174,5,3,2,4
354.175,5,2,1,4
354.176,4,1,1,4
354.176,4,1,1,5
354.177,5,3,5,7
354.177,6,2,2,5
354.178,4,0,0,4
354.178,3,-1,0,5
354.179,3,-1,0,5
354.18,4,-2,-1,4
354.18,5,-1,-2,4
354.181,5,0,0,5
354.181,7,2,1,5
354.182,6,3,0,4
354.182,7,5,3,6
354.183,10,7,4,4
354.184,7,7,4,1
354.184,4,5,1,-1
354.185,0,5,1,-3
354.185,1,7,3,-3
354.186,0,7,4,-3
354.186,0,7,2,-5
354.187,-1,7,5,-4
354.188,-2,7,5,-2
354.188,-2,6,6,-1
354.189,-1,6,7,0
354.189,0,5,4,0
354.19,0,2,2,0
354.19,0,2,1,0
354.191,0,0,0,1
354.192,3,3,2,3
354.192,6,7,5,5
354.193,6,4,3,3
354.193,2,0,1,2
354.194,1,-1,-2,2
354.194,4,0,-6,-1
354.195,7,4,-2,1
354.196,9,4,-2,1
354.196,7,5,2,5
354.197,9,10,14,16
354.197,10,5,8,10
354.198,3,-2,0,4
354.198,0,-3,2,8
354.199,2,-5,0,5
354.2,1,-4,-4,2
354.2,2,-4,-5,0
354.201,3,-1,-2,2
354.201,6,6,7,10
354.202,9,6,6,7
354.202,7,5,1,1
354.203,4,5,4,3
354.204,4,6,5,2
354.204,2,4,3,-2
354.205,-2,2,1,-4
354.205,-2,4,5,0
354.206,0,8,9,1
354.207,1,9,10,1
354.207,0,5,4,-3
354.208,-3,2,1,-5
354.208,-4,2,0,-4
354.209,-2,3,1,-3
354.209,-1,3,0,-2
354.21,1,4,0,-1
354.211,2,4,0,0
354.211,3,5,0,0
354.212,5,5,2,2
354.212,7,9,6,6
354.213,9,8,4,4
354.213,5,3,1,2
354.214,3,2,1,3
354.215,3,2,2,5
354.215,5,1,1,5
354.216,3,0,0,3
354.216,4,1,2,6
354.217,5,4,5,9
354.217,6,2,1,5
354.218,3,-2,-1,2
354.219,1,-4,-3,3
354.219,3,-2,0,6
354.22,5,0,2,7
354.22,5,0,2,7
354.221,6,2,3,6
354.221,6,2,1,4
354.222,4,3,2,3
354.223,4,4,4,2
354.223,3,5,5,4
354.224,2,3,1,0
354.224,0,3,1,-2
354.225,0,4,0,-3
354.225,0,4,-2,-8
354.226,-2,2,-4,-10
354.227,-1,5,-2,-8
354.227,2,10,2,-1
354.228,7,15,8,1
354.228,8,17,15,8
354.229,8,13,14,9
354.229,5,8,9,4
354.23,1,3,3,0
354.231,-2,0,2,-1
354.231,-4,-2,0,-2
354.232,-5,-4,-2,-2
354.232,-2,-2,0,1
354.233,2,4,6,7
354.233,6,5,7,7
354.234,3,1,3,4
354.235,0,-2,0,2
354.235,0,-1,0,4
354.236,3,0,3,7
354.236,5,1,1,4
354.237,4,0,-2,1
354.238,4,-1,-6,-1
354.238,5,0,-10,-3
354.239,7,2,-5,1
354.239,11,6,3,10
354.24,14,9,5,10
354.24,12,5,2,8
354.241,10,6,4,7
354.242,9,6,5,6
354.242,7,4,2,1
354.243,2,5,10,8
354.243,3,4,8,5
354.244,0,0,0,-1
354.244,-2,1,2,-2
354.245,-4,0,0,-6
354.246,-5,0,-2,-7
354.246,-3,5,2,-3
354.247,1,10,8,0
354.247,2,10,7,0
354.248,1,7,4,-2
354.248,-1,6,6,0
354.249,0,5,8,3
354.25,0,1,0,-1
354.25,-1,0,0,-1
354.251,0,2,2,1
354.251,0,2,2,2
354.252,2,1,0,1
354.252,3,4,5,6
354.253,6,6,5,5
354.254,5,4,3,4
354.254,3,0,0,0
354.255,3,0,0,4
354.255,6,4,5,7
354.256,7,3,2,6
354.257,6,1,-2,0
354.257,1,-1,-2,1
354.258,3,0,0,4
354.258,5,1,0,6
354.259,7,1,0,7
354.259,7,0,0,7
354.26,6,0,0,7
354.26,7,3,5,10
354.261,8,5,7,9
354.262,5,2,2,4
354.262,3,1,1,2
354.263,1,2,2,0
354.263,0,1,0,-2
354.264,0,1,0,-2
354.265,0,5,3,0
354.265,1,8,6,0
354.266,3,8,4,-1
354.266,2,8,2,-4
354.267,0,8,5,-2
354.267,0,6,5,-1
354.268,0,7,9,2
354.268,0,6,8,2
354.269,0,2,2,-2
354.27,-3,-2,-5,-6
354.27,-4,-3,-6,-6
354.271,-1,0,-3,-1
354.271,5,6,1,3
354.272,10,14,15,14
354.273,13,12,13,12
354.273,8,1,-1,0
354.274,1,0,1,3
354.274,2,0,1,5
354.275,4,-1,-2,1
354.275,2,-1,-1,4
354.276,4,0,0,5
354.277,6,2,2,5
354.277,5,1,1,3
354.278,2,0,0,1
354.278,1,-2,-1,4
354.279,4,0,3,7
354.279,6,1,0,5
354.28,5,0,1,6
354.281,6,1,1,6
354.281,6,2,0,2
354.282,5,3,0,2
354.282,6,8,8,7
354.283,7,7,6,4
354.283,4,5,5,1
354.284,0,2,1,-2
354.285,0,4,2,-1
354.285,1,7,5,-1
354.286,0,5,2,-4
354.286,-1,3,-1,-8
354.287,-1,5,-1,-6
354.287,1,9,4,-1
354.288,2,11,10,3
354.289,2,7,7,1
354.289,0,3,3,0
354.29,0,3,3,0
354.29,0,3,2,0
354.291,0,1,0,-1
354.291,0,1,-1,-1
354.292,1,2,0,2
354.293,5,4,3,4
354.293,6,6,5,7
354.294,7,5,3,5
354.294,5,3,2,4
354.295,4,1,1,4
354.296,5,2,3,6
354.296,6,1,1,4
354.297,3,0,0,3
354.297,2,0,-1,2
354.298,3,0,0,5
354.298,4,0,0,5
354.299,6,0,-1,3
354.3,5,0,0,4
354.3,5,0,1,6
354.301,6,2,3,8
354.301,8,2,1,4
354.302,5,4,6,6
354.302,5,5,6,5
354.303,3,5,4,2
354.304,2,2,2,0
354.304,1,3,1,-1
354.305,0,4,0,-5
354.305,0,3,-3,-9
354.306,0,6,0,-6
354.306,2,11,6,0
354.307,4,13,11,2
354.308,3,12,13,4
354.308,2,6,6,-1
354.309,-2,2,4,-1
354.309,-3,1,5,1
354.31,-1,0,0,-1
354.31,-2,-1,-2,-2
354.311,-1,0,0,0
354.312,2,2,0,1
354.312,3,2,1,3
354.313,4,4,3,4
354.313,5,3,3,5
354.314,6,5,5,7
354.314,7,5,7,8
354.315,6,3,3,5
354.316,2,0,0,1
354.316,0,-1,-1,1
354.317,2,0,1,5
354.317,6,2,2,6
354.318,6,1,0,3
354.318,3,-1,-2,3
354.319,4,0,0,6
354.32,6,1,1,6
354.32,7,1,0,5
354.321,7,3,1,5
354.321,7,4,2,4
354.322,5,4,1,1
354.323,4,5,3,3
354.323,4,6,6,4
354.324,4,6,5,1
354.324,2,5,3,0
354.325,1,5,1,-4
354.325,-1,2,-3,-8
354.326,-4,3,-1,-8
354.327,-1,8,6,0
354.327,1,9,8,2
354.328,4,9,5,0
354.328,0,5,3,-2
354.329,0,5,3,0
354.329,0,4,0,-2
354.33,0,2,-1,-4
354.331,0,3,1,0
354.331,3,6,7,6
354.332,5,6,8,8
354.332,5,6,9,8
354.333,4,0,-1,0
354.333,0,-1,1,3
354.334,2,1,3,5
354.335,3,0,0,3
354.335,2,3,9,12
354.336,5,1,5,7
354.336,1,-5,-7,-2
354.337,0,-3,-2,2
354.337,1,-1,0,3
354.338,3,-1,-3,3
354.339,5,0,0,5
354.339,9,4,2,8
354.34,10,4,1,7
354.34,8,3,0,5
354.341,7,4,3,6
354.341,7,5,4,6
354.342,7,6,5,4
354.343,5,4,2,0
354.343,2,2,0,-2
354.344,0,3,0,-3
354.344,1,5,3,-1
354.345,2,8,4,0
354.346,3,10,6,-1
354.346,1,9,7,0
354.347,0,6,3,-3
354.347,-2,3,0,-4
354.348,-1,6,5,-1
354.348,0,5,4,-1
354.349,-1,2,2,-1
354.349,-1,2,3,1
354.35,2,3,3,0
354.351,2,2,1,0
354.351,2,1,0,0
354.352,2,0,0,0
354.352,2,3,3,5
354.353,5,5,8,9
354.354,7,5,5,8
354.354,6,4,3,6
354.355,5,1,0,3
354.355,3,0,-2,1
354.356,2,0,-2,1
354.356,4,2,2,7
354.357,7,5,5,7
354.358,5,0,2,4
354.358,1,-2,0,4
354.359,2,-3,-1,4
354.359,4,-1,0,6
354.36,7,1,1,9
354.36,9,2,1,7
354.361,7,0,-3,1
354.362,5,1,-5,-1
354.362,4,5,1,0
354.363,5,8,5,2
354.363,5,8,5,2
354.364,4,8,6,1
354.364,3,9,7,0
354.365,2,9,7,0
354.366,0,7,7,-1
354.366,-3,4,6,-1
354.367,-2,3,3,-3
354.367,-3,1,-2,-8
354.368,-3,0,-8,-10
354.368,-1,4,0,-3
354.369,3,8,3,1
354.37,6,9,6,3
354.37,6,8,7,4
354.371,4,6,7,6
354.371,4,4,8,7
354.372,3,2,5,6
354.372,1,0,3,4
354.373,1,0,2,4
354.374,3,0,0,1
354.374,1,-1,-1,0
354.375,1,-1,-1,1
354.375,2,0,1,4
354.376,5,3,4,8
354.377,6,3,4,6
354.377,4,0,1,4
354.378,3,-1,0,3
354.378,2,-2,0,4
354.379,4,0,-1,6
354.379,6,1,1,7
354.38,6,0,-2,4
354.38,6,1,-1,3
354.381,6,4,1,4
354.382,8,7,3,4
354.382,7,8,5,4
354.383,6,6,3,1
354.383,3,5,3,0
354.384,2,6,4,0
354.385,2,7,4,-1
354.385,0,6,4,-2
354.386,-1,4,3,-4
354.386,-2,5,2,-4
354.387,-1,3,0,-6
354.387,0,6,3,-3
354.388,1,8,6,0
354.389,1,6,5,1
354.389,1,5,6,3
354.39,2,5,5,3
354.39,1,0,0,-1
354.391,0,1,2,1
354.391,0,1,3,3
354.392,1,1,1,4
354.393,5,3,1,2
354.393,4,2,-1,0
354.394,4,2,0,0
354.394,2,2,2,4
354.395,4,3,3,7
354.395,6,3,5,8
354.396,7,5,7,10
354.397,6,0,1,4
354.397,2,-2,-1,1
354.398,1,-2,-1,3
354.398,3,-2,-4,3
354.399,5,0,-4,2
354.399,6,1,0,5
354.4,7,3,3,9
354.401,10,5,5,8
354.401,9,6,4,5
354.402,6,4,1,1
354.402,4,3,0,-1
354.403,1,3,0,-2
354.403,2,5,3,1
354.404,2,7,5,0
354.405,2,8,5,-1
354.405,0,7,4,-2
354.406,-1,5,5,-2
354.406,0,8,8,1
354.407,0,6,7,0
354.408,0,5,6,0
354.408,-1,2,2,-3
354.409,-4,0,-1,-5
354.409,-5,-1,-1,-3
354.41,0,3,1,0
354.41,1,3,2,1
354.411,4,6,5,5
354.412,6,6,5,5
354.412,6,5,6,6
354.413,5,3,4,4
354.413,3,1,0,3
354.414,2,0,0,2
354.414,3,0,0,3
354.415,5,1,0,3
354.416,4,0,0,3
354.416,4,1,1,4
354.417,6,4,4,7
354.417,7,4,3,6
354.418,6,0,0,4
354.418,4,-1,0,5
354.419,4,-1,0,5
354.42,7,0,0,6
354.42,7,1,0,6
354.421,7,3,1,5
354.421,6,3,1,2
354.422,4,3,1,1
354.422,3,4,3,2
354.423,3,5,3,1
354.424,4,6,3,0
354.424,2,5,2,-2
354.425,0,6,2,-2
354.425,0,6,3,-2
354.426,0,7,5,-2
354.427,0,7,6,-1
354.427,0,7,6,0
354.428,0,6,5,-1
354.428,0,4,4,0
354.429,0,2,3,0
354.429,0,1,3,1
354.43,0,2,1,0
354.431,0,1,2,1
354.431,3,2,0,1
354.432,4,2,0,0
354.432,3,2,-2,0
354.433,5,4,1,3
354.433,6,4,2,4
354.434,5,4,5,8
354.434,7,6,9,11
354.435,7,4,7,10
354.436,6,0,-1,2
354.436,2,-2,-3,0
354.437,1,-1,0,4
354.437,3,0,1,5
354.438,3,-1,0,5
354.439,3,-2,-2,4
354.439,5,-2,-4,2
354.44,5,0,-2,3
354.44,8,2,0,4
354.441,8,5,0,3
354.441,8,5,0,2
354.442,9,10,6,5
354.443,8,12,13,9
354.443,6,6,8,3
354.444,0,4,3,-1
354.444,0,3,2,-1
354.445,0,3,-1,-7
354.445,-1,2,-5,-10
354.446,-3,5,0,-5
354.447,0,9,5,-1
354.447,1,9,8,1
354.448,2,8,10,3
354.448,-1,1,2,-2
354.449,-4,0,1,-1
354.449,-2,2,5,3
354.45,1,3,4,3
354.451,1,3,4,3
354.451,3,3,4,4
354.452,3,2,3,4
354.452,3,1,0,1
354.453,2,1,0,1
354.453,2,1,0,2
354.454,3,1,0,3
354.455,6,3,0,4
354.455,6,4,4,8
354.456,8,5,5,9
354.456,8,2,2,6
354.457,5,-1,0,3
354.458,2,-2,0,5
354.458,2,-2,-1,4
354.459,2,-4,-1,4
354.459,3,0,1,6
354.46,6,2,2,6
354.46,5,2,1,3
354.461,4,2,0,2
354.461,5,4,1,2
354.462,5,7,3,2
354.463,5,7,3,1
354.463,4,5,2,0
354.464,3,5,3,0
354.464,3,7,3,-1
354.465,2,9,5,-1
354.466,2,9,7,0
354.466,3,9,5,-2
354.467,-2,4,1,-5
354.467,-3,2,0,-6
354.468,-1,5,3,-2
354.468,-1,4,4,0
354.469,0,2,1,0
354.47,1,4,4,2
354.47,2,3,4,3
354.471,3,4,4,3
354.471,3,2,2,2
354.472,2,2,3,3
354.472,2,1,3,5
354.473,3,1,1,3
354.474,3,1,3,5
354.474,5,2,2,5
354.475,4,0,0,3
354.475,4,0,-2,1
354.476,3,-1,-2,1
354.476,4,1,0,4
354.477,6,3,5,7
354.478,7,1,3,7
354.478,7,1,1,7
354.479,6,1,3,7
354.479,5,0,1,6
354.48,4,-2,-2,2
354.48,4,0,0,3
354.481,4,3,3,4
354.482,5,4,5,4
354.482,4,3,2,2
354.483,2,4,2,0
354.483,1,3,1,0
354.484,2,7,4,0
354.484,3,8,5,0
354.485,1,7,3,-2
354.486,0,6,3,-3
354.486,1,7,3,-3
354.487,1,7,4,-2
354.487,0,7,5,-1
354.488,0,5,4,-2
354.489,-1,2,2,-1
354.489,-1,1,0,-1
354.49,0,3,2,1
354.49,2,4,4,4
354.491,4,6,7,6
354.491,3,3,6,5
354.492,3,3,6,6
354.493,3,2,4,5
354.493,2,0,0,2
354.494,0,-3,-3,0
354.494,0,-2,-5,-1
354.495,3,0,-3,1
354.495,7,3,0,4
354.496,9,4,1,5
354.497,9,6,4,8
354.497,9,5,4,7
354.498,8,3,2,8
354.498,7,0,0,6
354.499,6,0,-1,4
354.499,4,-2,-2,3
354.5,3,-1,0,4
354.501,5,1,2,6
354.501,6,4,4,6
354.502,6,4,3,4
354.502,3,3,2,1
354.503,2,3,2,1
354.503,3,5,3,0
354.504,3,7,3,-2
354.505,0,5,1,-6
354.505,-2,5,3,-4
354.506,0,7,4,-2
354.506,0,8,5,-1
354.507,1,6,4,-2
354.507,0,5,3,-3
354.508,-1,5,5,1
354.509,1,5,5,1
354.509,0,4,4,2
354.51,1,2,2,1
354.51,1,3,3,2
354.511,1,2,4,3
354.511,2,1,1,2
354.512,2,1,2,1
354.513,1,1,0,0
354.513,2,2,2,3
354.514,3,3,4,6
354.514,4,2,4,7
354.515,5,0,0,3
354.515,5,0,-4,1
354.516,5,2,0,3
354.517,6,4,3,7
354.517,6,2,2,6
354.518,3,0,1,7
354.518,5,0,0,6
354.519,5,0,0,5
354.519,4,-1,-2,3
354.52,6,1,0,4
354.521,7,4,3,6
354.521,7,6,4,5
354.522,5,5,3,2
354.522,3,3,0,-1
354.523,1,2,-1,-2
354.524,2,6,1,-1
354.524,3,7,4,0
354.525,4,11,7,1
354.525,3,11,10,1
354.526,0,6,6,-1
354.526,-1,4,4,-2
354.527,-2,4,4,-1
354.528,-3,2,2,-3
354.528,-4,0,-2,-6
354.529,-3,0,-3,-5
354.529,-1,3,1,0
354.53,2,6,5,2
354.53,5,6,4,3
354.531,6,6,5,5
354.532,6,5,4,5
354.532,6,3,1,3
354.533,4,5,7,7
354.533,5,3,8,9
354.534,4,0,1,5
354.535,2,-1,0,2
354.535,2,-2,-1,1
354.536,1,-2,-2,0
354.536,1,-1,-1,3
354.537,5,1,2,6
354.537,6,1,1,5
354.538,6,0,0,5
354.539,5,0,0,4
354.539,6,1,1,7
354.54,7,2,3,9
354.54,9,4,2,6
354.541,7,3,1,3
354.541,4,3,1,2
354.542,3,3,4,2
354.543,2,5,5,3
354.543,3,5,5,1
354.544,2,4,3,-1
354.544,0,4,0,-5
354.545,-1,4,1,-4
354.545,0,5,1,-3
354.546,3,8,3,-2
354.547,2,8,4,-1
354.547,1,8,6,0
354.548,0,6,4,-1
354.548,-1,3,2,-2
354.549,0,4,2,0
354.549,0,3,-1,-3
354.55,1,3,0,-2
354.551,1,4,2,1
354.551,3,6,5,5
354.552,6,10,14,13
354.552,7,4,7,6
354.553,0,-1,0,0
354.553,0,-2,0,2
354.554,0,-2,1,4
354.555,3,0,2,6
354.555,5,1,1,5
354.556,6,2,2,6
354.556,6,2,1,5
354.557,5,0,0,2
354.557,3,0,-1,3
354.558,4,-1,-2,5
354.559,6,1,0,6
354.559,8,2,1,6
354.56,7,1,1,6
354.56,6,3,3,5
354.561,6,3,3,4
354.561,6,5,2,3
354.562,4,4,2,1
354.563,3,3,2,0
354.563,1,2,1,-1
354.564,1,4,1,-2
354.564,2,6,3,-1
354.565,2,9,6,0
354.565,1,8,4,-2
354.566,0,6,2,-4
354.567,0,5,1,-5
354.567,-1,6,1,-3
354.568,0,6,3,-2
354.568,0,6,4,0
354.569,1,5,4,1
354.569,1,5,5,3
354.57,3,6,7,6
354.571,3,4,6,5
354.571,1,1,5,5
354.572,0,0,1,2
354.572,0,-2,0,2
354.573,1,0,0,1
354.573,2,0,0,2
354.574,3,0,0,3
354.575,4,0,-2,1
354.575,4,2,1,5
354.576,7,5,4,8
354.576,8,3,2,5
354.577,6,2,0,4
354.577,4,0,0,5
354.578,5,-1,0,5
354.579,7,0,0,4
354.579,6,0,-1,4
354.58,5,0,0,5
354.58,5,2,1,5
354.581,7,4,3,4
354.582,7,6,4,4
354.582,5,5,3,2
354.583,3,5,3,1
354.583,2,6,3,0
354.584,2,6,3,-1
354.584,0,5,3,-2
354.585,0,6,5,-2
354.586,-1,6,5,-1
354.586,0,5,4,-3
354.587,-1,4,3,-3
354.587,-1,3,2,-2
354.588,0,3,1,-2
354.588,0,3,0,-3
354.589,0,4,2,1
354.59,2,6,7,5
354.59,4,6,6,5
354.591,4,4,5,5
354.591,3,2,3,4
354.592,3,0,0,1
354.592,1,0,-1,0
354.593,2,0,0,2
354.594,4,1,0,3
354.594,6,3,0,3
354.595,6,3,0,3
354.595,6,3,1,4
354.596,7,4,2,5
354.596,6,3,2,5
354.597,5,3,4,7
354.598,5,0,2,8
354.598,5,0,0,6
354.599,3,-1,0,5
354.599,3,-1,0,4
354.6,5,1,0,4
354.6,5,3,2,5
354.601,5,3,3,3
354.602,4,2,0,0
354.602,2,3,1,1
354.603,3,5,4,1
354.603,2,8,8,3
354.604,2,5,3,-1
354.604,0,5,2,-3
354.605,-1,5,3,-3
354.606,0,6,4,-3
354.606,0,6,1,-5
354.607,-2,4,2,-3
354.607,-1,4,3,0
354.608,1,6,4,0
354.608,2,6,3,0
354.609,3,6,4,1
354.61,3,5,5,2
354.61,2,4,4,2
354.611,2,2,2,1
354.611,2,2,0,1
354.612,3,1,0,0
354.612,3,1,0,1
354.613,3,2,0,2
354.614,4,3,3,7
354.614,7,5,5,9
354.615,7,3,7,9
354.615,6,2,6,9
354.616,5,0,3,5
354.617,1,-1,0,3
354.617,0,-5,-4,0
354.618,-1,-7,-6,0
354.618,1,-4,-1,5
354.619,6,1,0,6
354.619,7,0,-1,5
354.62,8,4,0,6
354.621,9,5,1,5
354.621,10,8,4,4
354.622,8,8,5,4
354.622,6,7,4,2
354.623,4,5,3,0
354.623,2,6,3,-1
354.624,0,7,5,0
354.625,0,8,8,1
354.625,0,5,5,-2
354.626,-1,3,2,-4
354.626,-2,3,0,-5
354.627,-3,3,1,-4
354.627,-2,4,2,-3
354.628,-1,3,2,0
354.629,1,5,4,2
354.629,3,6,5,3
354.63,2,4,2,0
354.63,1,2,1,0
354.631,2,3,3,4
354.631,4,4,4,6
354.632,5,3,4,7
354.633,6,3,2,5
354.633,4,0,0,1
354.634,3,1,1,3
354.634,4,1,0,2
354.635,2,0,1,2
354.636,2,1,1,2
354.636,2,0,0,3
354.637,4,0,-1,2
354.637,5,1,0,5
354.638,5,2,1,6
354.638,6,2,1,6
354.64,7,3,5,9
354.64,8,3,3,9
354.64,8,3,3,6
354.641,6,2,1,3
354.641,3,2,0,0
354.642,2,2,1,1
354.642,3,4,3,1
354.643,3,4,2,0
354.644,2,6,4,-1
354.644,1,7,5,-1
354.645,0,6,3,-2
354.645,0,6,3,-2
354.646,1,7,3,-3
354.646,0,7,4,-1
354.647,0,8,8,0
354.648,0,5,6,0
354.648,-2,0,-1,-4
354.649,-3,-2,-7,-8
354.649,-2,3,2,1
354.65,2,5,5,5
354.65,5,5,4,4
354.651,6,7,6,6
354.652,5,4,3,5
354.652,4,2,1,3
354.653,3,0,0,2
354.653,2,1,1,3
354.654,3,1,4,6
354.654,5,2,3,6
354.655,4,0,1,4
354.656,3,0,0,3
354.656,3,0,0,3
354.657,4,0,-2,3
354.657,5,0,-1,3
354.658,5,0,-1,5
354.658,6,1,0,6
354.659,7,2,2,8
354.66,8,4,6,10
354.66,8,4,4,7
354.661,6,2,1,2
354.661,2,2,2,1
354.662,1,1,1,0
354.663,0,1,2,0
354.663,1,4,2,0
354.664,1,6,4,0
354.664,1,5,1,-4
354.665,0,5,0,-5
354.665,0,7,3,-3
354.666,1,8,3,-2
354.667,1,8,4,-3
354.667,1,8,4,-1
354.668,1,7,5,0
354.668,2,7,6,3
354.669,3,6,5,2
354.669,2,4,4,1
354.67,0,1,2,0
354.671,-1,-1,0,1
354.671,0,0,0,2
354.672,2,1,0,2
354.672,4,2,1,2
354.673,3,2,1,3
354.673,4,2,2,5
354.674,6,3,2,5
354.674,6,2,1,4
354.675,5,3,3,6
354.676,6,2,2,6
354.676,6,3,2,5
354.677,5,0,0,4
354.677,3,-2,-1,4
354.678,4,0,0,6
354.679,6,1,0,4
354.679,5,0,0,5
354.68,6,1,1,5
354.68,5,2,2,5
354.681,5,4,2,3
354.681,5,4,2,1
354.682,4,5,2,0
354.683,2,5,3,0
354.683,3,5,3,0
354.684,3,7,4,-1
354.684,1,8,5,0
354.685,1,7,4,-2
354.685,0,6,4,-3
354.686,-2,5,4,-3
354.687,-3,4,3,-2
354.687,-1,4,3,-2
354.688,-1,3,2,-1
354.688,0,2,1,0
354.689,0,2,1,0
354.689,2,4,3,2
354.69,3,5,4,4
354.691,5,6,5,4
354.691,4,4,3,3
354.692,3,2,1,2
354.692,3,1,0,3
354.693,4,2,2,4
354.693,4,2,2,6
354.694,4,1,1,5
354.695,4,0,-1,3
354.695,4,0,-2,1
354.696,4,1,1,5
354.696,6,2,0,4
354.697,5,0,0,5
354.697,5,0,0,6
354.698,7,2,2,7
354.699,7,1,1,5
354.699,4,-2,-4,0
354.7,3,0,-4,0
354.7,5,3,0,2
354.701,7,7,5,5
354.702,8,10,12,10
354.702,8,12,17,13
354.703,5,4,5,1
354.703,0,0,-3,-7
354.704,-5,1,-1,-6
354.704,-4,1,-2,-9
354.705,-3,3,-1,-7
354.706,0,8,4,-2
354.706,3,10,9,2
354.707,3,9,7,1
354.707,0,5,4,-1
354.708,-1,2,2,0
354.708,0,3,4,1
354.709,0,4,4,2
354.71,0,2,3,1
354.71,0,1,1,2
354.711,1,1,2,3
354.711,4,3,3,5
354.712,6,3,1,4
354.712,6,4,3,5
354.713,6,2,1,5
354.714,6,1,1,4
354.714,4,0,0,3
354.715,2,0,0,2
354.715,2,0,0,1
354.716,1,0,0,1
354.716,0,0,0,1
354.717,1,-1,-1,3
354.718,4,0,0,5
354.718,6,2,3,9
354.719,9,5,5,10
354.719,10,4,3,7
354.72,8,3,0,4
354.72,7,4,-1,1
354.721,6,5,0,0
354.722,4,5,3,1
354.722,5,6,3,2
354.723,4,8,8,4
354.723,4,7,6,0
354.724,0,5,3,-3
354.725,-1,4,3,-3
354.725,-3,3,1,-4
354.726,-2,4,2,-3
354.726,0,5,2,-3
354.727,0,5,2,-3
354.727,-1,3,3,-1
354.728,-1,3,4,2
354.729,0,1,0,0
354.729,1,2,0,0
354.73,2,5,4,3
354.73,4,4,5,4
354.731,4,3,4,5
354.731,5,4,6,6
354.732,5,4,4,5
354.733,3,0,0,1
354.733,0,-1,-1,0
354.734,1,0,1,4
354.734,3,1,1,4
354.735,5,1,1,4
354.735,5,0,-1,2
354.736,5,1,-1,2
354.737,5,3,0,4
354.737,6,2,2,8
354.738,8,3,3,8
354.738,7,2,1,6
354.739,6,0,0,5
354.739,5,0,1,4
354.74,5,1,1,5
354.741,5,4,2,4
354.741,4,4,1,1
354.742,3,3,1,0
354.742,2,4,1,0
354.743,1,4,3,0
354.743,2,6,5,0
354.744,2,7,4,-1
354.745,1,9,5,-2
354.745,0,6,3,-2
354.746,-1,5,3,-3
354.746,0,5,2,-3
354.747,0,5,4,-1
354.747,0,5,4,0
354.748,0,3,2,0
354.749,0,2,2,0
354.749,1,3,3,1
354.75,1,3,2,2
354.75,4,4,3,4
354.751,4,4,4,5
354.751,4,3,4,4
354.752,3,3,3,3
354.753,3,2,1,2
354.753,2,1,3,4
354.754,3,0,1,4
354.754,3,-2,-3,1
354.755,3,0,-2,1
354.755,4,1,0,3
354.756,6,4,2,6
354.757,8,3,2,6
354.757,6,1,1,6
354.758,6,1,2,8
354.758,6,1,1,6
354.759,5,-1,-2,2
354.76,3,0,1,5
354.76,5,1,2,5
354.761,5,4,3,5
354.761,6,5,4,3
354.762,5,5,3,2
354.762,3,5,3,1
354.763,2,5,1,-2
354.764,0,5,2,-3
354.764,0,6,2,-2
354.765,1,8,5,-1
354.765,1,9,6,-2
354.766,0,6,2,-4
354.767,-2,3,1,-3
354.767,-1,5,4,-1
354.768,0,4,4,0
354.768,1,4,2,0
354.769,0,3,1,0
354.769,1,5,4,3
354.77,3,5,7,6
354.77,4,3,4,4
354.771,3,2,2,2
354.772,2,1,1,2
354.772,2,0,0,1
354.773,3,0,0,1
354.773,3,1,0,3
354.774,4,1,-1,1
354.775,4,0,-2,2
354.775,6,4,3,6
354.776,8,4,5,8
354.776,7,2,1,5
354.777,5,0,0,5
354.777,5,0,0,6
354.778,6,0,1,7
354.779,5,0,1,6
354.779,5,0,0,6
354.78,6,3,2,7
354.78,7,4,3,4
354.782,2,2,1,0
354.782,1,2,1,0
354.782,1,3,2,0
354.783,2,5,4,2
354.783,3,8,7,3
354.784,2,8,6,0
354.784,0,6,3,-4
354.785,-2,4,1,-4
354.785,-1,5,2,-3
354.786,0,6,2,-3
354.786,0,4,1,-3
354.787,0,4,0,-4
354.788,0,3,0,-2
354.788,0,4,3,1
354.789,3,6,5,2
354.789,4,5,4,3
354.79,4,4,3,3
354.791,5,5,5,5
354.791,6,6,6,6
354.792,4,3,3,3
354.792,2,0,2,4
354.793,3,1,3,4
354.793,3,0,0,4
354.794,4,0,-1,4
354.795,4,0,0,4
354.795,4,-1,-1,2
354.796,2,-3,-8,-3
354.796,1,-3,-9,-3
354.797,5,1,-2,2
354.797,9,4,1,7
354.798,11,9,9,12
354.799,12,14,21,22
354.799,12,7,13,14
354.8,3,-2,0,1
354.8,-3,-5,-1,0
354.801,-4,-4,-1,-1
354.801,-3,-3,-2,-1
354.802,0,1,-1,-1
354.803,3,5,0,-1
354.803,5,8,2,-1
354.804,3,10,6,0
354.804,4,11,8,1
354.805,3,10,7,0
354.805,1,9,8,0
354.806,-1,6,6,-2
354.807,-2,4,5,0
354.807,-4,2,4,0
354.808,-2,0,0,-1
354.808,0,2,0,-1
354.809,1,3,0,-1
354.81,0,2,0,0
354.81,0,1,0,1
354.811,2,2,2,3
354.811,5,5,2,4
354.812,6,5,4,5
354.812,5,4,4,5
354.813,3,1,1,4
354.814,5,2,1,5
354.814,6,3,2,5
354.815,6,3,1,4
354.815,4,0,1,4
354.816,4,1,1,4
354.816,4,1,2,6
354.817,4,0,2,8
354.818,5,0,0,4
354.818,4,-2,-2,2
354.819,2,-3,-6,0
354.819,4,1,-1,2
354.82,7,5,2,5
354.82,9,6,3,4
354.821,7,7,4,4
354.822,5,7,6,4
354.822,4,5,5,2
354.823,4,6,2,-1
354.823,1,6,2,-2
354.824,0,6,4,-2
354.824,0,7,4,-3
354.825,-1,5,3,-3
354.826,0,6,4,-2
354.826,0,5,2,-3
354.827,0,7,5,0
354.827,0,5,4,0
354.828,0,2,1,0
354.828,0,2,2,1
354.829,0,3,5,2
354.83,0,2,3,2
354.83,1,1,2,2
354.831,2,2,1,3
354.831,4,2,1,3
354.832,4,3,2,4
354.833,5,3,2,4
354.833,4,2,0,4
354.834,5,2,1,3
354.834,4,0,1,5
354.835,5,1,0,3
354.835,5,2,1,4
354.836,5,2,3,6
354.837,6,2,3,6
354.837,4,0,1,7
354.838,5,0,2,7
354.838,5,0,1,5
354.839,4,-1,-1,4
354.839,3,0,0,4
354.84,3,1,0,2
354.841,3,1,-1,0
354.841,4,3,-2,-1
354.842,6,6,1,0
354.842,6,9,4,1
354.843,6,10,6,1
354.843,3,7,5,0
354.844,3,9,7,0
354.845,2,8,6,0
354.845,0,6,4,-3
354.846,-1,4,3,-3
354.846,-2,4,3,-2
354.847,-1,3,4,-1
354.847,-1,2,4,0
354.848,0,3,3,0
354.849,0,2,1,-1
354.849,0,1,0,0
354.85,2,2,0,0
354.85,2,3,0,0
354.851,3,3,2,3
354.851,6,5,4,5
354.852,5,3,3,5
354.853,6,4,4,8
354.853,7,4,4,6
354.854,5,0,0,3
354.854,2,-2,-2,2
354.855,2,0,0,3
354.855,3,0,0,4
354.856,4,1,2,7
354.857,5,0,1,6
354.857,5,0,0,6
354.858,6,1,1,6
354.858,6,1,1,5
354.859,5,0,1,5
354.859,5,1,1,5
354.86,5,1,1,3
354.861,4,3,2,2
354.861,4,3,2,2
354.862,3,4,4,1
354.862,2,4,2,0
354.863,2,5,3,0
354.863,1,6,3,-1
354.864,1,8,5,-1
354.865,0,7,4,-1
354.865,0,8,5,-2
354.866,0,5,3,-3
354.866,-1,5,4,-2
354.867,0,6,3,0
354.867,0,4,3,0
354.868,0,2,2,0
354.869,2,4,4,1
354.869,1,3,2,1
354.87,2,1,1,1
354.87,3,2,1,3
354.871,4,2,1,2
354.872,4,2,1,3
354.872,5,3,1,4
354.873,6,4,4,6
354.873,5,3,5,7
354.874,4,0,2,4
354.874,3,0,0,3
354.875,3,1,1,4
354.876,3,0,0,4
354.876,4,0,0,4
354.877,4,0,0,5
354.877,4,0,0,5
354.878,5,0,1,6
354.878,6,0,0,5
354.879,6,1,1,5
354.88,5,1,0,4
354.88,6,3,2,4
354.881,5,5,3,4
354.881,4,5,3,2
354.882,3,4,1,0
354.882,2,5,1,0
354.883,2,6,4,0
354.884,3,8,5,-1
354.884,0,6,5,-2
354.885,0,6,5,-1
354.885,0,6,4,-1
354.886,0,5,3,-1
354.886,0,4,0,-5
354.887,-1,3,0,-5
354.888,-1,3,2,-1
354.888,0,5,5,1
354.889,2,6,6,2
354.889,2,4,4,1
354.89,2,4,3,2
354.89,2,3,2,1
354.891,2,2,2,3
354.892,3,2,4,4
354.892,4,2,4,6
354.893,4,1,3,5
354.893,4,1,1,5
354.894,5,2,3,6
354.894,5,1,1,5
354.895,4,0,0,3
354.896,3,0,1,4
354.896,3,0,0,4
354.897,2,-3,-2,3
354.897,2,-3,-4,2
354.898,3,-1,-2,3
354.898,6,1,1,7
354.899,10,6,4,8
354.9,10,6,4,6
354.9,8,5,3,4
354.901,7,6,3,2
354.901,4,3,-1,-1
354.902,1,3,1,0
354.902,2,5,3,0
354.903,2,6,5,0
354.904,2,7,4,-1
354.904,0,7,4,-2
354.905,0,6,3,-3
354.905,0,6,3,-3
354.906,-1,5,4,-1
354.907,0,6,5,-1
354.907,-1,4,3,0
354.908,-1,2,2,0
354.908,0,3,2,0
354.909,0,4,5,2
354.909,1,2,3,2
354.91,1,2,1,2
354.911,2,1,1,2
354.911,3,2,1,1
354.912,4,2,0,2
354.912,4,4,1,4
354.913,6,4,2,5
354.913,7,3,2,5
354.914,5,2,2,6
354.915,5,2,2,6
354.915,4,1,3,7
354.916,6,2,4,7
354.916,4,0,3,6
354.917,2,-3,-1,4
354.917,2,-5,-3,1
354.918,1,-4,-2,3
354.919,3,-1,0,5
354.919,7,3,3,7
354.92,7,4,2,4
354.92,6,3,0,1
354.921,5,5,1,2
354.921,5,6,2,1
354.922,5,6,3,0
354.923,4,8,5,0
354.923,3,10,8,1
354.924,2,9,8,0
354.924,0,4,2,-5
354.925,-3,3,1,-5
354.925,-3,4,2,-4
354.926,-1,5,4,-1
354.927,0,6,4,0
354.927,0,4,3,0
354.928,0,3,2,0
354.928,0,3,3,1
354.929,2,3,2,1
354.929,1,2,3,2
354.93,2,2,3,4
354.931,4,3,3,3
354.931,4,2,2,3
354.932,3,1,1,3
354.932,3,1,1,3
354.933,4,2,1,4
354.934,5,1,1,4
354.934,5,1,1,4
354.935,5,2,1,4
354.935,4,1,0,3
354.936,4,1,0,4
354.936,2,0,0,5
354.937,4,0,0,6
354.938,5,0,-1,4
354.938,6,1,0,5
354.939,6,1,1,6
354.939,7,4,3,6
354.94,7,3,2,4
354.94,6,4,2,3
354.941,4,3,1,0
354.942,1,2,-1,-1
354.942,2,5,1,0
354.943,4,8,6,2
354.943,4,9,6,0
354.944,1,9,6,0
354.944,0,5,4,-2
354.945,-1,4,2,-5
354.946,-3,3,2,-4
354.946,-2,4,4,0
354.947,-1,5,5,0
354.947,0,5,4,1
354.948,1,4,4,1
354.948,1,3,2,0
354.949,1,2,1,0
354.95,1,2,2,1
354.95,3,4,4,5
354.951,5,5,6,6
354.951,5,4,5,7
354.952,3,0,1,3
354.952,1,-1,-1,2
354.953,2,0,0,3
354.954,4,0,-2,1
354.954,3,0,-2,2
354.955,5,1,-2,1
354.955,6,4,1,4
354.956,7,5,4,8
354.956,7,2,3,8
354.957,7,0,2,7
354.958,6,0,0,5
354.958,5,0,0,5
354.959,6,1,0,5
354.959,6,3,1,3
354.96,5,2,1,2
354.961,5,4,3,2
354.961,4,5,4,2
354.962,3,4,3,1
354.962,3,6,6,2
354.963,2,6,5,0
354.963,0,4,1,-3
354.964,-1,4,2,-4
354.965,-1,6,4,-2
354.965,-1,5,3,-3
354.966,-1,3,0,-6
354.966,-2,4,0,-3
354.967,1,8,6,1
354.967,3,6,4,0
354.968,2,5,2,0
354.969,3,7,6,4
354.969,4,4,4,3
354.97,3,4,3,2
354.97,1,2,4,4
354.971,1,1,3,5
354.971,3,0,1,3
354.972,3,2,3,5
354.973,3,0,1,4
354.973,3,-1,-2,1
354.974,2,0,0,3
354.974,4,2,2,6
354.975,6,3,3,5
354.975,5,1,0,3
354.976,3,0,-1,3
354.977,3,-1,-1,4
354.977,6,0,0,6
354.978,7,2,1,7
354.978,8,3,3,8
354.979,8,2,2,8
354.979,7,3,1,5
354.98,5,2,0,1
354.981,3,2,0,0
354.981,2,3,1,-1
354.982,0,3,1,-2
354.982,0,5,3,0
354.983,1,7,5,0
354.984,2,10,5,-1
354.984,1,8,4,-2
354.985,0,8,5,-3
354.985,-1,7,5,-2
354.986,-1,5,5,0
354.986,0,6,5,0
354.987,0,5,4,0
354.987,0,3,3,0
354.988,0,3,2,0
354.989,1,4,4,2
354.989,2,3,4,4
354.99,3,4,4,3
354.99,1,0,0,1
354.991,0,0,0,0
354.992,2,0,0,2
354.992,3,2,1,4
354.993,5,2,2,5
354.993,6,2,1,5
354.994,6,2,-1,2
354.994,6,2,0,3
354.995,6,4,2,5
354.996,6,3,2,6
354.996,6,2,1,6
354.997,6,0,0,5
354.997,5,0,-1,3
354.998,3,0,-1,4
354.998,3,0,-1,5
354.999,6,3,3,7
355,7,4,4,6
355,7,5,4,4
355.001,4,3,2,1
355.001,2,3,3,0
355.002,1,4,3,1
355.002,3,6,4,0
355.003,1,6,3,-2
355.004,1,6,3,-4
355.004,-1,5,3,-3
355.005,-1,5,3,-3
355.005,0,5,3,-2
355.006,0,6,4,-2
355.006,0,5,4,0
355.007,0,5,4,0
355.008,0,3,3,1
355.008,3,5,3,1
355.009,2,4,2,0
355.009,1,1,0,0
355.01,1,2,2,2
355.01,2,3,6,7
355.011,4,4,6,6
355.012,5,2,2,3
355.012,2,0,0,1
355.013,1,0,1,4
355.013,3,1,3,6
355.014,5,1,3,7
355.015,5,1,1,5
355.015,6,0,-1,2
355.016,4,0,-3,1
355.016,3,-2,-6,-1
355.017,2,-1,-3,3
355.017,7,2,2,8
355.018,10,6,6,11
355.019,11,5,5,10
355.019,10,4,4,6
355.02,6,2,1,2
355.02,3,2,1,2
355.021,2,2,0,0
355.021,2,2,-1,-2
355.022,2,4,1,0
355.023,3,7,3,-1
355.023,2,7,4,-1
355.024,2,9,6,-1
355.024,1,9,7,0
355.025,1,9,9,0
355.025,0,5,3,-4
355.026,-3,2,1,-4
355.027,-3,2,1,-2
355.027,-3,1,1,-2
355.028,-1,2,2,0
355.028,1,3,3,1
355.029,1,4,4,3
355.029,4,4,4,4
355.03,4,4,4,4
355.031,4,3,2,2
355.031,2,1,0,2
355.032,4,2,0,3
355.032,4,1,0,4
355.033,4,1,0,5
355.033,5,1,2,6
355.034,6,4,4,6
355.035,5,2,3,5
355.035,4,0,0,3
355.036,3,0,1,4
355.036,2,-1,0,4
355.037,2,-2,0,5
355.037,4,0,1,6
355.038,5,0,0,6
355.039,7,2,1,6
355.039,7,4,3,4
355.04,6,4,3,3
355.04,4,4,4,3
355.041,4,4,2,1
355.041,2,4,2,0
355.042,2,5,2,0
355.043,2,5,2,-2
355.043,1,6,4,-2
355.044,0,7,4,-2
355.044,0,7,4,-2
355.045,0,5,3,-4
355.046,-1,4,2,-3
355.046,0,6,5,0
355.047,0,5,4,0
355.047,0,4,4,1
355.048,1,4,3,1
355.048,1,4,3,1
355.049,2,3,3,1
355.05,1,3,2,2
355.05,3,2,2,3
355.051,3,2,2,3
355.051,3,1,2,3
355.052,4,3,2,4
355.052,4,2,2,4
355.053,4,1,1,4
355.054,4,1,1,5
355.054,5,2,2,5
355.055,3,0,0,3
355.055,4,0,0,3
355.056,3,0,-2,2
355.056,3,-1,-3,3
355.057,5,0,-1,6
355.058,7,2,1,7
355.058,8,2,0,6
355.059,9,4,0,4
355.059,8,5,2,4
355.06,7,6,4,5
355.06,6,6,4,2
355.061,4,5,4,2
355.062,3,4,1,0
355.062,1,5,3,-1
355.063,1,6,4,-1
355.063,-1,7,7,2
355.064,0,7,7,1
355.064,-1,4,4,-2
355.065,-2,3,2,-4
355.066,-4,3,3,-3
355.066,-4,1,1,-3
355.067,-4,0,-1,-4
355.067,-1,1,1,0
355.068,3,7,6,4
355.069,5,7,7,4
355.069,4,4,2,3
355.07,4,3,1,2
355.07,4,4,2,3
355.071,4,4,4,4
355.071,4,3,3,4
355.072,4,1,1,4
355.073,5,2,0,4
355.073,5,2,0,4
355.074,5,0,-1,3
355.074,4,0,-2,1
355.075,3,0,-2,1
355.075,4,0,-1,2
355.076,4,1,1,5
355.077,6,1,0,3
355.077,4,1,0,3
355.078,6,3,2,6
355.078,8,5,7,11
355.079,9,6,7,10
355.079,7,4,3,4
355.08,4,2,1,2
355.081,1,2,2,2
355.081,2,2,2,0
355.082,1,3,2,0
355.082,2,3,1,-2
355.083,0,4,1,-3
355.083,0,5,2,-4
355.084,-1,4,1,-4
355.085,0,7,4,0
355.085,1,9,6,0
355.086,1,8,5,0
355.086,0,7,5,0
355.087,0,3,3,0
355.087,0,2,2,0
355.088,1,3,2,0
355.089,1,2,2,1
355.089,1,2,2,1
355.09,2,2,1,2
355.09,3,2,2,3
355.091,3,2,2,3
355.091,4,3,2,4
355.092,5,3,2,4
355.093,5,2,1,3
355.093,4,1,1,4
355.094,4,1,1,5
355.094,5,1,1,4
355.095,5,0,0,2
355.095,4,0,-2,1
355.096,3,0,-1,4
355.097,5,1,0,7
355.097,8,3,3,8
355.098,8,4,8,12
355.098,8,4,7,10
355.099,5,0,0,0
355.099,0,-2,-1,0
355.1,0,-1,-3,-2
355.101,0,0,-2,-1
355.101,2,5,5,4
355.102,6,9,8,5
355.102,5,9,9,4
355.103,3,7,4,0
355.104,1,6,3,-3
355.104,-1,5,3,-3
355.105,-2,4,2,-4
355.105,-2,4,2,-2
355.106,0,6,4,-2
355.106,0,6,5,0
355.107,0,4,4,0
355.108,0,2,2,0
355.108,0,3,3,1
355.109,1,3,2,0
355.109,3,3,0,1
355.11,2,3,1,2
355.11,3,1,1,3
355.111,4,3,3,5
355.112,6,4,4,5
355.112,5,2,2,5
355.113,5,2,2,5
355.113,4,0,0,3
