Program Time [s],data 0,data 1,data 2,data 3
431.498,2,9,5,0
431.498,1,8,5,-2
431.499,0,7,4,-2
431.499,0,6,2,-4
431.5,-1,5,1,-5
431.501,-2,2,0,-4
431.501,-1,3,1,-1
431.502,0,4,4,2
431.502,2,5,8,5
431.503,3,3,7,6
431.503,3,2,3,4
431.504,3,1,0,0
431.505,1,0,0,1
431.505,2,2,1,3
431.506,4,3,3,5
431.506,6,3,3,5
431.507,6,3,1,3
431.507,4,1,0,2
431.508,4,1,0,1
431.509,3,2,0,2
431.509,6,4,2,4
431.51,7,4,3,5
431.51,5,2,0,4
431.511,4,0,1,7
431.511,4,-1,2,7
431.512,4,-1,1,6
431.513,4,0,1,6
431.513,4,1,1,4
431.514,4,1,0,2
431.514,3,2,1,2
431.515,4,3,1,2
431.515,4,5,4,2
431.516,4,6,4,0
431.517,2,5,2,-2
431.517,0,5,2,-2
431.518,1,6,2,-4
431.518,0,7,2,-4
431.519,0,8,4,-2
431.52,1,8,5,-2
431.52,0,7,4,0
431.521,1,6,3,0
431.521,0,4,5,2
431.522,1,3,4,2
431.522,2,3,3,2
431.523,1,1,2,2
431.524,1,1,2,2
431.524,1,1,2,3
431.525,2,1,1,2
431.525,2,1,0,3
431.526,3,2,1,2
431.526,3,2,1,3
431.527,4,3,1,3
431.528,5,3,0,3
431.528,6,3,1,3
431.529,5,3,1,3
431.529,5,3,2,5
431.53,5,3,4,6
431.53,5,0,1,5
431.531,3,-1,-1,4
431.532,4,-2,-1,4
431.532,3,-1,0,6
431.533,6,0,1,6
431.533,8,3,2,5
431.534,7,4,4,5
431.534,6,5,4,4
431.535,4,4,2,2
431.536,2,2,1,0
431.536,1,4,2,0
431.537,2,5,4,-1
431.537,0,6,4,-1
431.538,1,8,5,-2
431.538,0,7,4,-3
431.539,0,7,5,-2
431.54,-1,5,3,-3
431.54,-2,3,1,-3
431.541,-1,2,2,-2
431.541,0,3,2,0
431.542,1,4,5,3
431.542,3,5,4,3
431.543,3,3,3,2
431.544,3,3,2,2
431.546,3,2,2,2
431.547,3,2,2,3
431.547,3,2,2,4
431.547,4,2,2,3
431.547,3,1,2,4
431.547,4,2,1,3
431.548,3,1,2,4
431.548,4,2,2,4
431.549,4,2,0,4
431.549,4,2,1,4
431.55,5,1,0,3
431.551,2,-1,0,5
431.551,4,0,-1,5
431.552,5,0,0,6
431.552,6,0,0,5
431.553,5,0,0,4
431.553,7,2,0,3
431.554,6,4,1,3
431.555,6,6,4,4
431.555,4,7,7,5
431.556,3,4,5,3
431.556,2,5,5,0
431.557,1,6,5,0
431.557,0,7,4,-3
431.558,-1,6,4,-4
431.559,-1,6,3,-4
431.559,-1,5,3,-3
431.56,-1,5,2,-2
431.56,0,5,4,-1
431.561,0,3,3,0
431.561,-1,2,1,0
431.562,1,3,2,2
431.563,2,2,2,1
431.563,2,2,2,2
431.564,3,2,1,2
431.564,3,3,3,4
431.565,5,3,2,4
431.566,5,3,2,4
431.566,5,3,3,5
431.567,4,1,2,5
431.567,4,1,1,4
431.568,4,1,1,4
431.568,4,1,0,4
431.569,6,1,1,3
431.57,4,2,1,3
431.57,4,2,1,3
431.571,3,0,0,3
431.571,3,-2,-2,3
431.572,5,0,0,4
431.572,5,-1,-1,5
431.573,6,1,1,5
431.574,6,3,3,6
431.574,7,6,5,6
431.575,7,6,4,4
431.575,4,4,4,2
431.576,3,5,3,1
431.576,2,6,4,0
431.577,1,6,3,-2
431.578,0,6,3,-3
431.578,0,5,3,-2
431.579,0,6,3,-1
431.579,0,6,3,-3
431.58,-1,3,2,-1
431.58,0,4,2,-1
431.581,0,3,0,-2
431.582,0,3,1,-1
431.582,1,5,3,0
431.583,2,4,2,0
431.583,2,3,2,0
431.584,2,3,3,2
431.585,4,5,3,3
431.585,4,5,6,6
431.586,5,5,7,8
431.586,4,2,4,6
431.587,4,1,5,8
431.587,4,2,5,6
431.588,2,-1,0,2
431.589,0,-3,-2,1
431.589,1,-1,-1,1
431.59,2,-1,-1,2
431.59,2,-1,0,3
431.591,3,-2,0,5
431.591,6,0,0,6
431.592,8,2,1,7
431.593,8,2,2,6
431.593,8,3,2,6
431.594,7,3,1,4
431.594,6,5,3,3
431.595,4,5,3,3
431.595,3,5,3,2
431.596,3,4,3,0
431.596,2,6,3,-1
431.597,1,6,2,-2
431.598,0,7,3,-2
431.598,0,7,3,-3
431.599,0,6,4,-3
431.599,-1,5,2,-3
431.6,-1,4,1,-3
431.6,0,5,2,-1
431.601,0,3,0,-1
431.602,1,3,2,0
431.602,3,5,3,2
431.603,4,5,4,4
431.603,5,6,7,6
431.604,5,4,6,5
431.604,2,1,3,2
431.605,0,0,0,2
431.606,0,-1,0,2
431.606,1,0,0,3
431.607,3,0,-1,2
431.607,4,1,-1,2
431.608,5,2,0,3
431.609,6,4,1,5
431.609,6,4,2,4
431.61,7,4,2,5
431.61,5,1,1,5
431.611,6,0,1,5
431.611,5,0,0,5
431.612,4,0,0,5
431.613,5,0,0,4
431.613,5,1,1,5
431.614,5,2,1,4
431.614,5,5,3,3
431.615,4,5,4,3
431.616,3,5,4,1
431.616,2,5,4,0
431.617,2,7,5,-1
431.617,1,7,4,-2
431.618,-1,5,2,-4
431.618,-1,5,2,-2
431.619,0,7,3,-2
431.62,0,6,5,-1
431.62,-1,4,4,0
431.621,0,3,2,0
431.621,0,3,3,0
431.622,1,3,1,0
431.622,1,3,2,0
431.623,1,2,0,1
431.624,2,3,2,3
431.624,4,4,3,5
431.625,5,3,2,4
431.625,4,2,1,3
431.626,4,2,0,2
431.626,4,1,0,2
431.627,5,3,1,4
431.627,6,3,1,4
431.628,6,3,0,2
431.629,6,4,1,4
431.629,6,4,1,4
431.63,5,2,1,4
431.63,4,1,4,9
431.631,5,1,5,10
431.632,4,0,2,7
431.632,2,-4,-4,2
431.633,2,-2,-3,2
431.633,4,1,1,4
431.634,6,5,7,7
431.634,5,6,7,5
431.635,3,3,3,1
431.636,0,1,0,-1
431.636,1,2,0,-2
431.637,0,5,1,-2
431.637,1,7,4,-1
431.638,2,9,6,0
431.638,2,8,4,-1
431.639,0,7,3,-3
431.64,-1,4,2,-4
431.64,-1,5,3,-1
431.641,0,4,3,0
431.641,1,4,3,2
431.642,3,5,3,1
431.642,1,3,2,1
431.643,2,2,2,3
431.644,4,4,4,5
431.644,4,3,3,5
431.645,5,3,2,3
431.645,3,1,0,2
431.646,3,1,0,3
431.646,3,1,1,3
431.647,4,2,1,3
431.648,4,2,0,2
431.648,3,1,-1,1
431.649,4,1,0,2
431.649,5,3,1,5
431.65,5,2,1,5
431.65,5,0,0,5
431.651,5,0,0,5
431.652,7,1,1,7
431.652,6,1,1,7
431.653,7,3,4,7
431.653,7,4,4,6
431.654,5,3,2,2
431.654,3,2,2,2
431.655,2,3,1,0
431.656,1,4,2,0
431.656,1,4,2,-1
431.657,1,5,2,-2
431.657,0,6,4,-2
431.658,0,7,4,-2
431.659,0,7,5,-2
431.659,0,7,4,-2
431.66,0,5,4,-2
431.66,0,6,4,0
431.661,-1,3,3,0
431.661,1,2,2,0
431.662,1,3,2,1
431.663,2,3,2,2
431.663,2,3,2,3
431.664,4,3,3,3
431.664,4,2,0,1
431.665,3,3,1,1
431.665,4,4,3,4
431.666,5,3,2,3
431.667,4,2,1,3
431.667,5,3,2,4
431.668,5,3,3,6
431.668,5,3,4,6
431.669,4,1,1,4
431.669,2,-1,0,1
431.67,0,-3,-2,2
431.671,1,-2,0,5
431.671,4,0,0,6
431.672,6,1,2,7
431.672,7,4,3,7
431.673,7,3,3,5
431.673,7,3,0,3
431.674,5,4,1,3
431.675,5,5,4,4
431.675,6,5,2,2
431.676,4,5,3,0
431.676,2,6,4,0
431.677,1,7,5,-2
431.677,0,6,3,-5
431.678,-3,3,2,-5
431.679,-3,5,3,-4
431.679,-3,3,3,-3
431.68,-2,4,3,-3
431.68,-2,4,3,-1
431.681,0,3,4,1
431.681,3,6,5,3
431.682,4,5,4,3
431.683,4,5,4,4
431.683,4,4,3,3
431.684,3,2,3,4
431.684,4,3,3,4
431.685,3,1,2,3
431.685,3,1,0,2
431.686,3,1,0,3
431.687,4,1,0,2
431.687,4,2,0,4
431.688,6,2,1,4
431.688,6,3,2,5
431.689,6,2,1,4
431.689,5,2,1,4
431.69,3,-2,-2,3
431.691,4,-1,-2,4
431.691,5,0,-1,4
431.692,6,0,1,7
431.692,8,3,1,6
431.693,8,4,1,4
431.694,7,6,5,5
431.694,6,6,6,5
431.695,4,6,7,5
431.695,3,4,5,3
431.696,1,2,0,-2
431.696,-1,2,0,-3
431.697,-1,3,0,-5
431.698,-1,5,2,-4
431.698,-1,6,5,-2
431.699,0,8,6,0
431.699,1,8,5,0
431.7,1,6,5,0
431.7,0,3,2,0
431.701,0,2,1,0
431.702,0,3,3,1
431.702,1,3,2,1
431.703,2,2,2,2
431.703,2,2,3,3
431.704,3,2,2,3
431.704,4,3,2,3
431.705,4,2,2,4
431.706,5,2,1,4
431.706,4,2,1,4
431.707,5,1,0,4
431.707,5,4,3,5
431.708,6,6,6,4
431.708,4,2,1,2
431.709,2,0,0,0
431.71,0,-2,-2,2
431.71,2,-2,-1,4
431.711,4,-1,-2,5
431.711,7,0,-1,3
431.712,6,1,-1,5
431.712,9,4,2,7
431.713,9,5,4,7
431.714,8,6,4,5
431.714,6,6,5,4
431.715,5,6,5,2
431.715,2,4,2,0
431.716,1,4,2,-1
431.716,0,5,3,-1
431.717,0,6,4,-2
431.718,0,6,4,-2
431.718,0,5,4,-3
431.719,-1,5,3,-4
431.719,-2,4,2,-3
431.72,-1,4,3,-2
431.721,-1,3,2,0
431.721,0,3,1,0
431.722,1,3,2,1
431.722,1,2,1,1
431.723,3,3,2,2
431.723,3,4,4,5
431.724,5,4,4,5
431.725,5,3,1,3
431.725,4,2,1,2
431.726,3,3,2,3
431.726,4,2,2,5
431.727,5,3,3,5
431.727,5,4,3,6
431.728,5,4,6,7
431.729,3,0,1,4
431.729,2,-1,-1,1
431.73,1,-2,-1,2
431.73,3,-1,-2,2
431.731,3,0,0,4
431.731,5,1,1,6
431.732,5,1,2,6
431.733,8,3,2,6
431.733,6,2,1,4
431.734,5,3,1,2
431.734,4,3,2,3
431.735,4,6,3,2
431.735,4,5,3,1
431.736,2,5,3,-1
431.737,0,5,2,-2
431.737,0,6,3,-3
431.738,0,7,4,-2
431.738,1,8,4,-2
431.739,0,7,4,-2
431.739,0,5,3,-1
431.74,0,6,4,0
431.741,0,5,3,1
431.741,0,2,2,0
431.742,0,1,1,0
431.742,0,2,1,2
431.743,1,2,1,3
431.743,4,3,4,5
431.744,6,4,4,5
431.745,5,2,1,3
431.745,4,1,-1,0
431.746,2,2,0,2
431.746,4,3,1,3
431.747,5,3,1,3
431.748,4,1,1,4
431.748,5,3,3,6
431.749,6,5,5,7
431.749,4,1,2,5
431.75,1,-2,-1,3
431.75,2,-2,-1,3
431.751,3,-1,-1,3
431.752,3,-1,0,4
431.752,5,0,0,4
431.753,6,2,1,5
431.753,7,6,4,5
431.754,8,7,4,4
431.754,6,6,3,2
431.755,4,5,3,2
431.756,4,6,4,1
431.756,3,8,7,1
431.757,2,8,8,0
431.757,0,5,4,-3
431.758,-4,2,1,-6
431.758,-4,3,1,-5
431.759,-3,4,2,-4
431.76,-1,5,3,-2
431.76,-1,4,2,-1
431.761,0,2,2,0
431.761,1,4,2,1
431.762,2,4,2,2
431.762,3,3,4,3
431.763,4,4,4,4
431.764,4,5,5,5
431.764,4,3,3,4
431.765,4,3,3,4
431.765,4,2,1,4
431.766,4,1,0,3
431.766,4,0,0,3
431.767,5,1,0,3
431.768,5,2,0,3
431.768,4,1,0,1
431.769,3,2,1,2
431.769,3,2,1,3
431.77,2,0,2,6
431.77,3,0,1,6
431.771,5,0,0,5
431.772,4,0,-1,4
431.772,5,1,1,6
431.773,8,3,2,7
431.773,8,4,2,4
431.774,5,4,3,4
431.774,5,4,3,2
431.775,4,5,3,1
431.776,4,7,5,0
431.776,1,5,4,-1
431.777,0,7,5,-2
431.777,0,7,5,-1
431.778,0,6,4,-3
431.779,-1,5,3,-4
431.779,-3,4,2,-3
431.78,-1,4,3,-2
431.78,-1,3,3,-1
431.781,0,3,4,1
431.781,1,4,3,1
431.782,2,2,2,2
431.783,1,2,1,2
431.783,2,2,1,3
431.784,3,3,3,4
431.784,4,3,3,4
431.785,4,3,2,2
431.785,3,3,1,2
431.786,3,2,1,3
431.787,5,3,1,4
431.787,5,3,2,4
431.788,6,4,3,6
431.788,5,3,3,5
431.789,5,1,0,3
431.789,4,0,-1,3
431.79,2,-3,-2,3
431.791,3,-2,-1,5
431.791,5,0,1,6
431.792,6,0,1,6
431.792,6,2,2,7
431.793,7,2,1,4
431.793,6,4,4,4
431.794,5,5,4,3
431.795,3,3,2,1
431.795,2,3,1,-1
431.796,1,4,2,-1
431.796,1,6,2,-2
431.797,1,7,3,-2
431.797,2,8,4,-2
431.798,2,9,5,-2
431.799,0,6,4,-2
431.799,0,5,4,-1
431.8,0,5,4,0
431.8,0,4,4,1
431.801,0,2,1,0
431.802,0,1,1,0
431.802,0,1,2,2
431.803,1,2,3,2
431.803,3,2,2,4
431.804,4,4,3,4
431.804,4,3,3,4
431.805,4,2,2,3
431.806,4,3,2,3
431.806,4,1,0,3
431.807,4,2,0,2
431.807,4,2,0,1
431.808,4,2,0,2
431.808,5,3,0,2
431.809,5,3,1,4
431.81,5,1,0,5
431.81,5,1,3,8
431.811,6,1,4,8
431.811,5,-1,1,6
431.812,5,0,0,4
431.812,4,0,0,3
431.813,4,2,1,3
431.814,5,3,2,3
431.814,5,4,3,3
431.815,4,5,3,2
431.815,4,5,3,1
431.816,4,8,5,0
431.816,1,6,2,-3
431.817,1,5,0,-5
431.818,0,5,1,-4
431.818,1,8,3,-2
431.819,0,7,4,-2
431.819,0,7,5,0
431.82,0,6,6,0
431.821,0,5,6,3
431.821,2,6,11,7
431.822,0,3,8,5
431.822,-1,-3,0,0
431.823,-3,-5,-4,-3
431.823,-2,-1,-3,-1
431.824,1,0,0,2
431.825,5,4,3,5
431.825,6,5,4,5
431.826,6,4,3,5
431.826,7,4,1,4
431.827,5,2,0,2
431.827,4,1,0,2
431.828,4,2,2,5
431.829,5,3,1,4
431.829,6,3,2,5
431.83,5,0,0,4
431.83,4,-1,0,5
431.831,5,0,0,5
431.831,6,1,1,7
431.832,7,1,1,5
431.833,6,1,1,3
431.833,4,2,1,3
431.834,5,5,2,3
431.834,5,5,3,2
431.835,4,5,2,1
431.835,3,5,2,-1
431.836,1,5,3,-1
431.837,1,6,5,-1
431.837,1,8,6,-1
431.838,1,7,5,-1
431.838,0,5,2,-4
431.839,-2,4,2,-4
431.839,-2,4,3,-1
431.84,0,4,3,0
431.841,0,3,2,1
431.841,0,3,3,1
431.842,2,4,3,1
431.842,1,2,3,3
431.843,3,3,3,3
431.843,3,3,3,3
431.844,3,2,2,3
431.845,3,1,1,2
431.845,3,0,0,3
431.846,4,2,0,3
431.846,5,4,3,5
431.847,6,4,2,5
431.848,5,3,1,3
431.848,4,2,1,3
431.849,4,2,1,3
431.849,4,0,0,4
431.85,3,0,-1,5
431.85,4,0,0,5
431.851,6,1,1,7
431.852,5,0,1,6
431.852,6,1,1,5
431.853,5,1,0,3
431.853,4,2,1,3
431.854,5,4,3,3
431.854,4,6,4,3
431.855,4,5,3,2
431.856,3,6,4,0
431.856,1,6,4,0
431.857,1,6,4,-2
431.857,0,5,3,-3
431.858,0,5,2,-4
431.858,0,6,4,-2
431.859,0,5,2,-2
431.859,0,6,1,-3
431.86,0,4,2,0
431.861,0,3,3,1
431.861,3,4,5,5
431.862,4,4,5,5
431.862,4,3,3,4
431.863,3,2,1,1
431.863,1,0,-1,0
431.864,0,0,0,1
431.865,2,2,2,3
431.865,4,3,2,3
431.866,4,3,2,3
431.866,4,2,2,4
431.867,5,3,2,4
431.868,5,4,3,4
431.868,5,4,3,4
431.869,5,3,1,4
431.869,3,0,0,4
431.87,4,0,0,6
431.87,5,0,0,6
431.871,6,0,0,6
431.872,5,0,0,4
431.872,5,1,0,3
431.873,5,2,1,3
431.873,5,4,3,4
431.874,4,5,4,4
431.874,3,5,5,3
431.875,4,5,4,2
431.876,2,6,4,-1
431.876,1,5,2,-3
431.877,0,5,2,-4
431.877,-1,4,1,-4
431.878,0,7,3,-3
431.879,0,6,4,-2
431.879,0,6,4,-1
431.88,0,6,4,0
431.88,0,3,2,0
431.881,0,4,4,3
431.881,3,4,3,1
431.882,2,2,1,1
431.883,2,1,0,2
431.883,3,3,2,4
431.884,4,4,4,6
431.884,5,3,3,5
431.885,4,2,1,3
431.885,3,0,0,3
431.886,3,0,0,3
431.887,3,0,0,2
431.887,3,0,0,2
431.888,6,5,2,3
431.888,5,5,2,3
431.889,4,2,2,3
431.889,3,0,0,4
431.89,3,-1,-2,3
431.891,4,0,-1,3
431.891,4,0,0,5
431.892,7,2,2,8
431.892,9,4,3,8
431.893,9,6,4,6
431.893,7,6,4,4
431.894,5,5,3,2
431.895,3,4,3,0
431.895,1,4,4,1
431.896,1,4,4,0
431.896,0,5,5,-1
431.897,-1,5,5,0
431.897,-1,4,3,-3
431.898,-2,3,2,-5
431.899,-2,4,2,-4
431.899,-1,4,3,-2
431.9,-1,4,4,0
431.9,0,3,3,2
431.901,2,3,3,3
431.902,2,3,4,3
431.902,1,2,2,2
431.903,2,1,1,1
431.903,2,1,1,2
431.904,3,1,0,1
431.904,4,3,1,2
431.905,5,5,4,5
431.905,6,5,5,6
431.906,8,6,4,6
431.907,6,3,2,3
431.907,4,1,0,2
431.908,3,2,0,2
431.908,3,1,0,1
431.909,2,-2,-3,1
431.91,1,-2,-2,4
431.91,4,-1,0,6
431.911,6,1,0,6
431.911,6,0,0,6
431.912,8,3,2,6
431.912,9,5,4,6
431.913,8,5,4,5
431.913,6,6,3,2
431.914,3,5,3,1
431.915,2,4,2,0
431.915,1,4,3,0
431.916,1,4,3,-1
431.916,0,6,4,-1
431.917,0,6,4,-1
431.917,0,7,5,-1
431.918,0,6,4,-3
431.919,-1,4,2,-3
431.919,-1,4,3,-2
431.92,-1,3,3,-1
431.92,0,3,3,1
431.921,1,3,2,0
431.922,2,3,2,2
431.922,2,2,3,3
431.923,3,2,3,3
431.923,3,2,2,4
431.924,4,2,1,3
431.924,3,2,2,3
431.925,4,3,3,5
431.926,5,3,3,5
431.926,5,1,2,4
431.927,4,1,0,2
431.927,4,2,1,3
431.928,4,1,-1,1
431.928,3,0,-1,2
431.929,3,0,0,4
431.93,4,0,0,7
431.93,6,0,0,6
431.931,6,0,1,7
431.931,6,0,1,7
431.932,7,3,3,6
431.932,7,4,3,5
431.933,5,3,2,4
431.934,4,3,2,1
431.934,3,3,2,1
431.935,2,4,2,0
431.935,3,6,3,0
431.936,0,6,3,-1
431.936,0,7,4,-1
431.937,0,6,3,-4
431.938,0,7,4,-3
431.938,0,6,3,-2
431.939,0,5,2,-3
431.939,-1,5,3,-1
431.94,0,4,4,0
431.94,0,3,3,1
431.941,2,3,3,1
431.942,2,3,2,1
431.942,2,3,3,2
431.943,3,3,3,3
431.943,3,2,1,2
431.944,3,1,1,3
431.944,4,2,1,3
431.945,4,2,1,3
431.946,3,1,0,3
431.946,4,0,-1,2
431.947,6,3,0,3
431.947,6,4,0,3
431.948,6,4,0,3
431.949,6,4,2,5
431.949,6,3,3,6
431.95,6,1,2,7
431.95,5,1,3,8
431.951,6,1,7,9
431.951,3,0,6,10
431.952,3,-2,2,5
431.953,1,-2,-1,0
431.953,0,-2,-5,-4
431.954,0,0,-4,-4
431.954,0,3,0,-1
431.955,3,5,1,0
431.955,5,10,7,3
431.956,7,12,9,3
431.957,6,12,8,1
431.957,3,10,8,1
431.958,1,6,6,-1
431.958,-2,3,1,-5
431.959,-4,1,0,-6
431.959,-3,2,0,-4
431.96,-3,1,0,-3
431.961,-1,2,1,0
431.961,2,4,3,1
431.962,3,6,6,4
431.962,4,6,9,7
431.963,4,4,6,5
431.963,4,2,3,4
431.964,3,2,2,4
431.965,3,1,1,3
431.965,3,0,1,3
431.966,3,0,0,2
431.966,3,0,0,1
431.967,4,1,0,3
431.967,5,3,1,3
431.968,5,2,0,4
431.969,5,2,1,4
431.969,5,0,0,5
431.97,5,0,0,6
431.97,6,0,1,6
431.971,6,0,0,5
431.971,6,1,1,6
431.972,6,2,1,6
431.973,7,5,3,4
431.973,5,5,3,3
431.974,4,4,3,1
431.974,3,3,3,0
431.975,1,5,3,0
431.975,2,6,3,-1
431.976,0,6,3,-2
431.977,0,6,3,-2
431.977,-1,5,3,-3
431.978,0,6,3,-2
431.978,0,5,2,-3
431.979,0,5,2,-2
431.979,0,5,4,0
431.98,1,4,4,1
431.981,2,4,4,2
431.981,2,3,3,2
431.982,4,3,3,3
431.982,2,1,1,2
431.983,3,1,2,3
431.984,4,2,1,4
431.984,4,2,3,4
431.985,4,3,3,4
431.985,3,1,0,3
431.986,3,1,0,3
431.986,4,1,0,2
431.987,4,3,2,3
431.988,4,2,2,4
431.988,5,2,1,4
431.989,5,1,0,3
431.989,3,0,-1,5
431.99,5,0,-1,5
431.99,5,0,0,5
431.991,5,0,0,5
431.992,7,3,2,6
431.992,7,3,1,4
431.993,7,4,2,3
431.993,5,5,2,2
431.994,5,6,4,3
431.994,4,5,4,3
431.995,3,6,4,0
431.996,2,5,3,-1
431.996,0,6,5,-1
431.997,0,5,4,-2
431.997,0,6,5,-1
431.998,0,7,4,-3
431.999,-1,4,3,-3
431.999,-2,3,3,-2
432,-2,3,3,0
432,0,2,3,0
432.001,0,2,3,1
432.001,0,3,3,2
432.002,2,2,2,2
432.003,2,2,0,1
432.003,2,2,0,1
432.004,4,3,0,1
432.004,5,5,3,4
432.005,6,5,4,6
432.005,6,5,4,5
432.006,6,3,2,4
432.007,5,1,2,4
432.007,4,0,0,3
432.008,4,0,0,3
432.008,3,1,0,3
432.009,4,0,-1,3
432.009,3,-1,-1,4
432.01,4,0,0,5
432.011,6,0,0,6
432.011,5,0,1,7
432.012,6,2,3,8
432.012,8,3,3,5
432.013,7,5,3,4
432.013,5,4,3,2
432.014,4,4,3,0
432.015,2,4,1,-1
432.015,1,6,3,-1
432.016,1,7,6,0
432.016,1,8,7,0
432.017,0,7,4,-2
432.017,-1,6,3,-4
432.018,-3,3,1,-4
432.019,-2,3,1,-4
432.019,-3,3,3,0
432.02,0,4,6,3
432.02,1,4,5,4
432.021,3,2,0,0
432.022,1,2,0,0
432.022,2,1,0,0
432.023,4,3,0,1
432.023,4,4,1,3
432.024,5,4,3,5
432.024,6,6,4,5
432.025,6,4,5,6
432.025,5,4,7,8
432.026,4,1,3,5
432.027,3,0,0,0
432.027,1,-1,-1,0
432.028,1,0,-1,0
432.028,2,0,0,2
432.029,3,0,0,4
432.029,5,0,0,7
432.03,7,2,1,8
432.031,8,2,0,6
432.031,8,1,0,4
432.032,6,2,1,5
432.032,7,5,4,7
432.033,7,7,6,5
432.033,4,3,3,2
432.034,1,1,0,0
432.035,0,3,2,0
432.035,2,6,5,0
432.036,1,7,5,-1
432.036,0,6,3,-2
432.037,0,5,3,-3
432.038,0,6,3,-3
432.038,0,8,5,-2
432.039,-1,6,5,-2
432.039,-1,4,2,-1
432.04,0,1,1,0
432.04,0,1,1,1
432.041,1,2,1,1
432.042,1,2,1,1
432.042,3,3,3,3
432.043,3,4,3,3
432.043,3,4,4,3
432.044,3,3,4,4
432.044,3,2,3,3
432.045,3,1,1,3
432.046,4,1,0,2
432.046,4,0,-1,1
432.047,4,0,-1,3
432.047,6,2,0,3
432.048,7,5,1,4
432.048,8,4,2,6
432.049,6,2,2,7
432.05,6,0,0,6
432.05,5,1,2,7
432.051,6,2,5,10
432.051,7,3,6,8
432.052,4,0,0,2
432.052,1,-1,-3,0
432.053,0,-1,-1,-1
432.054,1,2,0,0
432.054,3,4,2,0
432.055,3,5,4,1
432.055,4,8,5,0
432.056,3,9,6,0
432.056,2,8,4,-2
432.057,0,6,2,-3
432.058,0,6,3,-3
432.058,0,6,3,-2
432.059,-1,5,2,-2
432.059,-1,2,3,0
432.06,1,3,3,0
432.061,1,3,3,2
432.061,2,4,4,2
432.062,2,3,3,3
432.062,3,2,2,2
432.063,3,3,3,3
432.063,4,3,2,3
432.064,3,2,2,3
432.065,3,1,1,3
432.065,4,1,0,4
432.066,4,1,1,3
432.066,4,2,1,4
432.067,5,3,2,5
432.068,5,2,1,3
432.068,5,3,1,3
432.069,3,0,-1,2
432.069,2,-2,-2,3
432.07,4,0,0,5
432.07,6,1,0,6
432.071,6,1,1,7
432.071,7,3,2,6
432.072,7,3,3,6
432.073,7,5,2,4
432.073,5,5,3,3
432.074,3,4,2,1
432.074,3,3,3,0
432.075,3,5,3,0
432.075,2,6,3,-1
432.076,0,6,3,-2
432.077,0,6,3,-2
432.077,0,7,5,-2
432.078,0,5,4,-2
432.078,0,6,4,-2
432.079,0,4,2,-2
432.079,0,2,1,-1
432.08,0,2,0,0
432.081,1,2,1,0
432.081,1,3,1,2
432.082,3,4,3,3
432.082,5,5,6,6
432.083,5,5,5,5
432.083,5,5,7,6
432.084,3,2,5,5
432.085,2,0,1,3
432.085,1,-1,0,1
432.086,1,-1,-1,1
432.086,2,0,-1,2
432.087,3,1,0,2
432.087,4,1,0,3
432.088,5,3,1,6
432.089,6,3,1,6
432.089,6,1,0,5
432.09,5,0,0,6
432.09,5,0,0,5
432.091,6,1,0,6
432.091,7,3,1,5
432.092,7,3,0,3
432.093,5,4,2,3
432.093,5,6,2,3
432.094,6,7,4,3
432.094,5,7,5,1
432.095,3,6,4,-1
432.096,0,5,3,-3
432.096,-1,5,3,-4
432.097,-3,4,3,-3
432.097,-2,5,3,-2
432.098,-2,5,4,-2
432.098,-1,4,3,-2
432.099,-1,5,3,0
432.1,0,3,2,0
432.1,0,2,1,0
432.101,1,2,3,2
432.101,1,4,5,3
432.102,2,3,4,4
432.102,4,3,3,3
432.103,3,2,2,2
432.104,3,2,1,2
432.104,3,2,1,3
432.105,5,2,1,4
432.105,7,4,2,4
432.106,6,3,2,4
432.106,5,2,0,3
432.107,4,1,0,3
432.108,4,1,0,2
432.108,4,1,0,4
432.109,3,0,0,5
432.109,4,0,0,5
432.11,6,2,2,8
432.11,7,1,1,6
432.111,5,1,1,5
432.112,4,1,0,4
432.112,5,2,1,3
432.113,5,3,2,2
432.113,3,4,3,0
432.114,2,4,3,0
432.114,1,4,3,0
432.115,3,7,3,-1
432.116,1,6,1,-3
432.116,0,7,2,-3
432.117,0,6,2,-3
432.117,1,8,3,-3
432.118,0,6,4,-1
432.118,0,6,5,0
432.119,0,6,6,0
432.12,1,4,4,1
432.12,1,5,9,6
432.121,1,3,6,5
432.121,0,0,2,1
432.122,0,-1,0,0
432.122,0,0,0,0
432.123,0,0,0,1
432.124,1,0,0,2
432.124,2,2,2,4
432.125,5,3,2,5
432.125,7,5,3,6
432.126,6,4,2,4
432.127,6,3,1,4
432.127,6,2,1,3
432.128,6,3,2,5
432.128,5,1,0,5
432.129,4,-1,-1,6
432.129,5,-1,-1,4
432.13,5,0,0,5
432.131,4,0,0,4
432.131,5,1,1,4
432.132,5,3,2,4
432.132,5,4,2,3
432.133,3,4,2,1
432.133,4,4,2,0
432.134,3,5,2,0
432.135,3,7,4,0
432.135,3,7,3,-1
432.136,2,9,5,-1
432.136,2,9,7,0
432.137,1,8,6,-1
432.137,0,6,6,-1
432.138,-1,3,3,-2
432.139,-2,1,0,-3
432.139,-2,0,0,-1
432.14,-1,1,2,0
432.14,0,2,3,1
432.141,2,4,4,2
432.141,2,4,4,4
432.142,4,4,4,4
432.143,3,3,2,2
432.143,2,2,1,2
432.144,2,1,0,2
432.144,3,1,0,3
432.145,4,2,0,2
432.145,5,2,0,4
432.146,5,3,1,4
432.147,6,3,2,4
432.147,6,4,2,4
432.148,5,2,0,3
432.148,4,0,-1,2
432.149,3,-1,-2,3
432.15,5,0,-1,5
432.15,7,2,0,5
432.151,7,3,3,7
432.151,7,4,4,7
432.152,6,5,8,9
432.152,6,3,5,5
432.153,2,1,0,0
432.154,0,1,0,-1
432.154,-1,1,1,-1
432.155,0,5,4,0
432.155,1,6,4,0
432.156,1,9,6,0
432.156,1,8,5,-1
432.157,0,6,3,-3
432.158,-1,5,3,-3
432.158,-1,4,3,-2
432.159,0,4,2,-1
432.159,0,3,1,0
432.16,1,3,1,0
432.16,1,2,2,1
432.161,2,3,3,4
432.162,4,5,5,4
432.162,5,5,6,5
432.163,4,3,3,4
432.163,2,2,2,3
432.164,2,0,1,2
432.164,2,0,0,3
432.165,3,1,0,3
432.166,5,1,0,3
432.166,5,2,0,3
432.167,5,2,0,2
432.167,5,4,2,5
432.168,6,3,3,6
432.168,5,1,1,5
432.169,4,0,0,6
432.17,6,0,0,4
432.17,5,0,0,4
432.171,6,1,0,5
432.171,6,3,1,5
432.172,7,4,3,4
432.172,7,5,2,3
432.173,4,4,1,0
432.174,2,2,0,-2
432.174,1,4,0,-1
432.175,2,7,4,0
432.175,1,6,5,0
432.176,2,7,6,0
432.177,1,7,6,0
432.177,0,6,3,-3
432.178,-1,4,2,-4
432.178,-1,4,3,-2
432.179,0,7,6,0
432.179,0,5,5,0
432.18,0,2,3,0
432.181,0,1,2,0
432.181,0,0,0,0
432.182,0,1,0,0
432.182,2,1,0,2
432.183,4,4,3,4
432.183,6,4,3,4
432.184,5,4,3,5
432.185,5,4,3,5
432.185,6,4,5,6
432.186,6,5,6,6
432.186,4,3,3,4
432.187,1,-1,-2,0
432.187,0,-3,-4,-1
432.188,0,-1,-2,1
432.189,2,-1,-2,4
432.189,5,0,1,8
432.19,8,3,4,10
432.19,8,3,5,10
432.191,7,1,1,5
432.191,4,0,1,4
432.192,3,1,1,3
432.193,5,4,2,2
432.193,2,3,1,0
432.194,2,3,1,0
432.194,3,6,3,0
432.195,2,8,4,-1
432.195,1,8,5,0
432.196,2,8,5,-1
432.197,0,6,3,-2
432.197,0,6,3,-3
432.198,-1,5,2,-2
432.198,0,6,4,-1
432.199,0,3,3,0
432.199,0,3,2,1
432.2,1,3,3,1
432.201,2,3,3,2
432.201,2,2,2,2
432.202,3,2,2,3
432.202,3,2,2,3
432.203,4,2,0,2
432.203,4,2,0,2
432.204,4,1,0,2
432.205,3,1,0,2
432.205,4,2,1,3
432.206,5,3,1,4
432.206,5,3,1,4
432.207,5,3,2,4
432.207,5,4,2,4
432.208,4,1,1,4
432.209,4,0,0,5
432.209,4,0,0,7
432.21,6,0,0,7
432.21,6,0,0,7
432.211,7,1,0,6
432.212,6,1,0,5
432.212,6,3,0,1
432.213,4,3,0,0
432.213,3,6,4,1
432.214,3,6,5,1
432.214,1,5,3,-2
432.215,0,4,2,-4
432.216,-1,6,5,-2
432.216,-1,7,8,0
432.217,0,7,8,0
432.217,0,7,7,0
432.218,0,4,4,-1
432.218,-2,4,3,-1
432.219,-2,1,1,-1
432.22,-1,0,0,0
432.22,1,2,1,0
432.221,2,3,1,2
432.221,4,4,2,3
432.222,4,4,3,3
432.223,4,2,2,3
432.223,4,3,2,3
432.224,4,3,2,4
432.224,5,3,1,3
432.225,4,2,1,3
432.225,4,2,1,3
432.226,4,2,1,4
432.227,4,2,2,5
432.227,4,1,0,3
432.228,4,0,0,3
432.228,3,-1,-1,3
432.229,3,-1,-1,4
432.229,5,0,0,6
432.23,6,2,1,5
432.231,6,2,1,5
432.231,6,2,1,4
432.232,6,3,0,2
432.232,6,4,0,0
432.233,5,6,3,2
432.233,4,7,5,1
432.234,4,7,6,2
432.235,3,9,10,4
432.235,1,9,13,5
432.236,0,7,11,2
432.236,-4,0,1,-5
432.237,-7,-1,-3,-9
432.237,-7,0,-3,-8
432.238,-5,1,0,-6
432.238,-2,2,-1,-3
432.239,0,3,0,0
432.24,4,6,2,1
432.24,6,7,2,3
432.241,7,7,3,3
432.241,7,7,3,3
432.242,7,7,3,4
432.243,6,6,3,4
432.243,7,5,3,5
432.244,4,3,4,4
432.244,3,2,5,6
432.245,3,2,7,9
432.245,4,1,4,5
432.246,1,-1,0,1
432.247,0,-2,-3,-1
432.247,0,-1,-2,0
432.248,2,0,-1,2
432.248,3,-1,-1,5
432.249,5,0,0,6
432.249,6,0,0,5
432.25,5,0,0,5
432.251,7,2,1,6
432.251,9,5,4,7
432.252,9,6,4,5
432.252,7,5,4,3
432.253,5,5,3,0
432.253,2,4,2,2
432.254,3,6,4,1
432.255,2,7,4,0
432.255,1,6,2,-3
432.256,-1,4,0,-6
432.256,-2,4,0,-5
432.257,-1,5,4,-2
432.257,0,6,5,-1
432.258,0,6,4,-1
432.259,0,6,6,1
432.259,1,4,4,1
432.26,0,2,1,0
432.26,0,1,0,0
432.261,1,1,1,1
432.261,3,3,1,2
432.262,3,3,2,3
432.263,5,3,1,2
432.263,5,2,0,2
432.264,5,3,2,4
432.264,6,3,1,4
432.265,7,5,3,5
432.266,6,5,6,7
432.266,5,3,4,5
432.267,3,1,3,5
432.267,2,0,1,3
432.268,0,-3,-2,0
432.268,0,-5,-3,1
432.269,0,-3,-1,4
432.27,3,0,1,6
432.27,5,0,0,6
432.271,8,4,3,7
432.271,9,5,3,5
432.272,7,4,2,4
432.273,5,4,1,1
432.273,3,5,2,2
432.274,4,4,3,2
432.274,4,6,4,0
432.275,3,6,3,0
432.275,1,7,4,-1
432.276,1,7,4,-1
432.276,0,6,3,-3
432.277,0,5,2,-4
432.278,-1,3,1,-3
432.278,-1,4,2,-1
432.279,0,5,5,0
432.279,1,6,6,1
432.28,0,3,2,0
432.28,0,1,0,-1
432.281,0,1,0,1
432.282,3,3,1,2
432.282,4,3,3,3
432.283,5,5,4,5
432.283,5,5,5,6
432.284,7,6,6,5
432.284,4,2,4,4
432.285,2,0,1,3
432.286,1,-2,0,2
432.286,2,0,0,2
432.287,2,0,0,3
432.287,3,0,-1,2
432.288,2,0,-1,2
432.288,3,-1,-3,4
432.289,6,0,-1,5
432.29,8,4,2,7
432.29,8,1,1,7
432.291,8,4,4,7
432.291,7,4,3,6
432.292,8,6,5,5
432.292,7,8,5,3
432.293,4,5,3,0
432.294,1,3,1,0
432.294,1,3,1,-2
432.295,0,5,2,-2
432.295,0,6,4,-2
432.296,0,6,4,-1
432.297,0,8,6,-1
432.297,0,5,3,-3
432.298,-1,3,0,-5
432.298,-1,3,0,-4
432.299,0,3,1,-1
432.299,0,4,4,1
432.3,2,3,3,3
432.301,3,5,5,4
432.301,4,3,3,3
432.302,3,3,3,4
432.302,3,2,2,4
432.303,4,1,1,4
432.303,5,3,2,5
432.304,5,1,0,3
432.305,4,0,0,2
432.305,3,1,0,2
432.306,3,1,0,2
432.306,4,2,1,3
432.307,4,2,0,2
432.307,4,2,0,2
432.308,3,0,0,4
432.309,4,0,1,6
432.309,6,1,1,6
432.31,7,2,3,8
432.31,7,2,2,7
432.311,7,2,1,5
432.311,4,2,1,3
432.312,4,3,1,2
432.313,3,4,1,1
432.313,3,3,1,1
432.314,3,5,2,1
432.314,4,6,3,0
432.315,2,6,2,-3
432.316,1,7,4,-1
432.316,0,7,4,-1
432.317,0,6,3,-1
432.317,0,7,5,-1
432.318,-1,6,7,0
432.318,-1,3,6,0
432.319,-2,1,2,-1
432.319,-1,0,-2,-3
432.32,-1,1,0,0
432.321,1,2,2,2
432.321,2,4,4,4
432.322,4,4,5,6
432.322,6,5,4,6
432.323,6,3,2,3
432.323,4,1,0,1
432.324,2,1,-1,1
432.325,3,1,0,3
432.325,6,2,0,3
432.326,7,5,2,4
432.326,6,4,2,4
432.327,5,3,2,3
432.328,4,1,2,5
432.328,3,-1,0,4
432.329,4,-1,-1,4
432.329,5,-1,-1,4
432.33,4,-1,-1,4
432.33,6,1,0,6
432.331,8,4,3,6
432.332,8,7,7,7
432.332,7,6,6,5
432.333,4,3,2,0
432.333,2,4,3,0
432.334,2,5,5,0
432.334,1,7,10,3
432.335,0,5,7,0
432.336,-3,1,0,-6
432.336,-5,1,0,-5
432.337,-3,3,1,-4
432.337,-2,3,1,-4
432.338,-1,5,2,-1
432.338,0,5,4,1
432.339,2,6,5,2
432.34,3,5,4,1
432.34,2,3,2,2
432.341,2,3,3,3
432.341,4,4,4,4
432.342,5,5,4,5
432.343,5,3,1,1
432.343,2,1,0,1
432.344,3,2,0,1
432.344,3,1,1,3
432.345,5,3,1,3
432.345,4,2,1,3
432.346,5,2,2,4
432.347,4,2,1,4
432.347,5,3,2,5
432.348,4,1,1,4
432.348,3,-1,0,5
432.349,4,-1,0,5
432.349,5,0,0,5
432.35,5,0,0,5
432.35,6,1,0,4
432.351,5,1,0,2
432.352,6,4,1,3
432.352,6,6,4,4
432.353,6,7,6,4
432.353,5,7,6,3
432.354,3,8,7,1
432.355,2,5,3,-1
432.355,0,3,0,-5
432.356,-2,3,1,-5
432.356,-2,6,5,-2
432.357,-1,6,5,-1
432.357,-1,5,4,-2
432.358,0,5,4,-2
432.359,0,3,2,0
432.359,0,2,1,0
432.36,0,2,2,0
432.36,1,3,3,3
432.361,3,3,3,3
432.361,4,3,3,4
432.362,4,3,3,4
432.363,4,2,0,2
432.363,4,2,0,3
432.364,4,3,1,3
432.364,4,3,3,4
432.365,4,2,2,4
432.365,5,2,0,3
432.366,4,1,1,3
432.367,4,2,0,3
432.367,4,2,1,3
432.368,3,0,1,5
432.368,3,-2,0,4
432.369,4,-1,0,6
432.369,6,1,0,6
432.37,7,0,0,5
432.371,6,3,1,5
432.371,6,4,2,3
432.372,5,3,2,2
432.372,4,4,4,2
432.373,3,5,3,2
432.373,2,4,3,0
432.374,2,5,3,0
432.375,2,7,5,0
432.375,2,7,5,0
432.376,1,6,2,-3
432.376,-1,5,2,-4
432.377,-1,4,3,-2
432.377,0,6,5,0
432.378,0,5,5,0
432.379,0,3,2,0
432.379,0,1,0,0
432.38,0,2,1,0
432.38,1,2,2,1
432.381,2,2,2,2
432.382,4,4,3,4
432.382,4,4,3,4
432.383,5,4,3,4
432.383,5,4,3,4
432.384,4,3,2,3
432.384,4,2,1,3
432.385,3,1,0,3
432.386,4,2,0,3
432.386,4,1,0,4
432.387,4,1,1,3
432.387,4,1,0,3
432.388,4,-1,-2,4
432.388,4,0,-2,4
432.389,5,1,-1,4
432.39,7,2,0,5
432.39,8,3,2,7
432.391,9,5,3,6
432.391,8,7,7,8
432.392,6,5,7,6
432.392,2,0,0,0
432.393,0,0,-2,-2
432.394,0,2,0,-2
432.394,1,6,2,0
432.395,2,8,7,2
432.395,2,8,8,0
432.396,0,7,6,1
432.397,1,7,8,0
432.397,-1,5,6,-2
432.398,-4,1,3,-2
432.398,-5,0,2,-2
432.399,-3,0,2,0
432.399,0,2,1,0
432.4,1,2,2,0
432.401,0,2,1,1
432.401,2,3,2,4
432.402,6,5,4,6
432.402,6,4,1,4
432.403,6,2,0,1
432.403,5,2,0,2
432.404,5,3,0,3
432.405,6,3,0,2
432.405,5,3,0,1
432.406,4,3,0,1
432.406,4,3,3,4
432.407,5,5,4,5
432.407,6,3,3,6
432.408,3,0,1,5
432.409,4,0,0,5
432.409,5,0,0,5
432.41,4,0,0,4
432.41,5,0,-1,3
432.411,6,2,0,4
432.411,7,5,3,4
432.412,5,5,3,3
432.413,3,4,3,2
432.413,4,6,5,3
432.414,4,7,6,1
432.414,2,6,4,-2
432.415,0,4,2,-4
432.415,-2,4,1,-4
432.416,-1,5,2,-3
432.417,0,7,4,-3
432.417,-1,5,3,-2
432.418,-1,5,3,-1
432.418,0,3,3,1
432.419,1,3,3,2
432.419,2,4,3,2
432.42,2,4,3,2
432.421,2,3,2,2
432.421,2,2,2,2
432.422,3,2,1,2
432.422,3,2,1,1
432.423,2,2,1,3
432.424,5,2,0,2
432.424,4,2,0,2
432.425,5,3,2,4
432.425,6,3,3,5
432.426,7,4,2,4
432.426,6,2,0,3
432.427,5,3,2,4
432.427,5,2,1,5
432.428,3,0,3,8
432.429,4,0,4,9
432.429,4,-1,1,6
432.43,2,-3,-1,4
432.43,3,-1,-1,2
432.431,2,0,-1,1
432.432,3,2,1,3
432.432,5,6,6,5
432.433,5,6,4,3
432.433,4,6,2,0
432.434,2,5,0,-2
432.434,0,5,1,-3
432.435,1,8,5,-1
432.435,1,9,7,0
432.436,2,9,5,-1
432.437,0,6,4,-2
432.437,0,5,4,-1
432.438,0,4,3,-1
432.438,0,2,0,-1
432.439,0,2,0,-1
432.44,1,2,1,0
432.44,1,2,1,1
432.441,2,3,3,3
432.441,4,5,5,5
432.442,5,3,2,3
432.442,4,2,1,2
432.443,2,2,1,3
432.444,3,1,2,4
432.444,4,2,2,4
432.445,5,2,1,3
432.445,4,1,0,4
432.446,4,1,1,4
432.446,5,2,1,4
432.447,5,2,1,4
432.448,5,1,0,4
432.448,6,2,2,6
432.449,5,1,0,4
432.449,4,0,0,5
432.45,4,0,1,6
432.45,6,2,2,4
432.451,5,1,1,3
432.452,5,3,2,2
432.452,3,2,2,1
432.453,3,4,3,2
432.453,3,4,2,0
432.454,2,5,3,-1
432.454,1,6,3,-2
432.455,2,8,4,-2
432.456,1,8,4,-3
432.456,0,7,4,-3
432.457,0,5,2,-3
432.457,0,5,3,-2
432.458,0,5,3,-1
432.458,0,3,2,0
432.459,0,3,3,2
432.46,3,4,5,3
432.46,3,4,3,3
432.461,3,3,2,2
432.461,2,1,0,2
432.462,3,2,2,3
432.462,3,2,2,3
432.463,2,2,2,4
432.464,3,1,2,4
432.464,4,2,3,5
432.465,4,2,2,5
432.465,3,0,0,2
432.466,3,0,0,1
432.466,2,1,0,2
432.467,3,0,0,2
432.468,3,0,-1,4
432.468,5,0,0,6
432.469,7,2,1,7
432.469,7,1,2,7
432.47,8,3,2,7
432.471,7,1,1,6
432.471,5,3,2,4
432.472,5,5,3,4
432.472,4,5,3,2
432.473,2,4,2,0
432.473,2,4,2,0
432.474,2,6,2,-2
432.475,1,7,3,-3
432.475,0,6,3,-3
432.476,0,6,4,-1
432.476,1,8,5,-1
432.477,0,6,3,-1
432.477,0,5,3,-2
432.478,-1,2,1,-1
432.479,-1,2,2,0
432.479,0,3,3,1
432.48,2,3,3,2
432.48,2,2,2,2
432.481,3,3,2,3
432.482,4,3,2,2
432.482,3,2,2,2
432.483,4,2,2,3
432.483,4,2,2,4
432.484,5,2,1,3
432.484,5,2,1,3
432.485,5,3,1,4
432.485,5,3,2,4
432.486,4,2,0,3
432.487,4,2,1,4
432.487,4,2,1,4
432.488,4,0,-1,4
432.488,3,-1,0,4
432.489,4,0,1,6
432.489,6,1,1,6
432.49,6,1,2,5
432.491,5,3,2,5
432.491,5,3,2,4
432.492,4,5,3,3
432.492,4,4,1,0
432.493,2,3,1,0
432.493,3,5,3,1
432.494,3,8,5,0
432.495,1,7,4,-1
432.495,1,6,4,-2
432.496,0,7,4,-1
432.496,0,6,3,-2
432.497,-1,4,3,-3
432.497,-1,4,3,-2
432.498,-1,3,2,-2
432.499,0,3,3,0
432.499,1,4,4,1
432.5,1,2,2,1
432.5,2,1,2,1
432.501,3,3,2,3
432.502,4,3,2,3
432.502,5,3,3,4
432.503,6,4,2,3
432.503,4,3,3,4
432.504,5,2,2,4
432.504,3,1,0,3
432.505,4,1,0,3
432.506,4,2,1,4
432.506,5,3,1,4
432.507,4,2,2,5
432.507,5,1,1,6
432.508,4,-1,0,7
432.509,6,0,0,6
432.509,6,0,0,6
432.51,5,0,0,4
432.51,4,0,-1,2
432.511,3,1,0,2
432.511,3,3,3,2
432.512,4,6,4,2
432.513,4,6,5,1
432.513,3,7,4,1
432.514,3,7,3,-1
432.514,1,6,2,-2
432.515,0,8,5,-1
432.515,0,8,5,0
432.516,2,8,6,0
432.517,0,6,4,-1
432.517,0,5,4,-1
432.518,0,4,2,-2
432.518,-1,2,2,0
432.519,0,1,1,0
432.519,0,2,3,1
432.52,0,1,2,2
432.521,2,2,2,2
432.521,3,3,3,4
432.522,5,4,3,4
432.522,4,3,2,4
432.523,4,2,1,2
432.523,4,2,1,3
432.524,3,1,0,3
432.525,3,1,1,4
432.525,4,1,0,2
432.526,4,2,0,2
432.526,4,2,2,5
432.527,5,3,2,5
432.527,6,1,2,5
432.528,5,0,0,5
432.529,5,0,0,5
432.529,6,0,0,4
432.53,5,0,0,5
432.53,7,2,1,4
432.531,5,2,1,4
432.531,6,4,3,2
432.532,4,3,1,1
432.533,3,3,2,1
432.533,2,5,3,1
432.534,3,6,4,0
432.534,2,7,4,-1
432.535,0,7,4,-1
432.535,0,5,2,-2
432.536,0,7,3,-3
432.537,0,5,3,-3
432.537,-1,4,2,-2
432.538,0,4,3,-1
432.538,0,3,2,1
432.539,1,3,3,1
432.539,2,3,3,2
432.54,2,3,3,1
432.541,2,2,3,3
432.541,3,3,4,5
432.542,4,3,4,4
432.542,3,2,1,2
432.543,2,2,1,3
432.543,3,2,1,2
432.544,2,1,0,2
432.545,4,1,0,2
432.545,3,1,0,3
432.546,5,2,1,3
432.546,5,3,1,3
432.547,4,2,0,4
432.547,4,0,0,5
432.548,4,0,-1,5
432.549,5,0,0,4
432.549,5,0,0,5
432.55,6,2,3,8
432.55,8,3,3,7
432.551,6,2,1,5
432.551,6,5,2,4
432.552,6,5,4,4
432.553,4,4,3,2
432.553,2,4,3,1
432.554,1,5,2,-1
432.554,1,5,0,-4
432.555,0,5,0,-6
432.556,0,6,1,-4
432.556,1,11,9,0
432.557,1,12,10,0
432.557,1,10,10,1
432.558,-1,7,11,3
432.558,-4,1,9,4
432.559,-6,-4,3,0
432.56,-7,-4,2,0
432.56,-3,-2,1,0
432.561,-2,-1,-1,-2
432.561,-1,-3,-7,-6
432.562,-1,-3,-9,-7
432.562,2,-2,-13,-7
432.563,9,7,-5,0
432.564,17,21,17,17
432.564,21,20,20,20
432.565,17,13,12,13
432.565,11,6,6,7
432.566,4,0,-1,0
432.566,-1,-5,-5,-2
432.567,-1,-6,-4,1
432.568,0,-5,-4,3
432.568,3,-4,-5,2
432.569,4,-2,-6,1
432.569,3,-3,-4,2
432.57,6,0,1,8
432.57,9,5,5,10
432.571,11,7,8,13
432.572,12,8,6,8
432.572,9,5,2,2
432.573,3,2,0,-1
432.573,1,4,3,0
432.574,3,9,7,1
432.574,1,6,3,-2
432.575,-1,6,5,-2
432.576,-1,7,5,-4
432.576,-1,9,7,-3
432.577,-2,11,11,0
432.577,-1,6,8,0
432.578,-4,0,2,-3
432.578,-5,-1,-1,-4
432.579,-5,-2,-2,-5
432.58,-3,0,-1,-3
432.58,0,3,0,0
432.581,2,6,4,2
432.581,2,2,3,3
432.582,2,1,1,2
432.582,3,2,3,5
432.583,4,3,4,6
432.584,5,3,5,7
432.584,6,2,2,6
432.585,7,0,-2,2
432.585,5,0,-5,0
432.586,6,1,-1,4
432.586,9,4,2,9
432.587,9,2,2,10
432.588,9,0,2,10
432.588,12,6,5,11
432.589,12,8,6,8
432.589,6,3,1,2
432.59,3,0,-1,0
432.591,0,-1,-2,0
432.591,1,0,-1,0
432.592,2,0,-3,-2
432.592,1,0,-3,-1
432.593,2,0,-5,-3
432.593,4,6,2,0
432.594,8,15,13,4
432.595,10,23,21,7
432.595,6,19,19,6
432.596,2,10,12,2
432.596,-2,2,3,-2
432.597,-8,-6,-4,-9
432.598,-12,-9,-8,-11
432.598,-12,-9,-5,-5
432.599,-6,-4,-2,0
432.599,0,-2,-4,-2
432.6,0,-1,-3,0
432.6,2,2,5,10
432.601,10,4,5,12
432.601,14,7,5,11
432.602,14,9,5,10
432.603,12,8,2,3
432.603,8,8,2,0
432.604,3,6,0,-3
432.604,0,5,3,0
432.605,3,10,9,2
432.606,4,11,12,6
432.606,4,8,8,4
432.607,2,4,5,2
432.607,-1,-1,0,0
432.608,-2,-4,-2,0
432.608,-1,-4,-3,-1
432.609,-2,-7,-7,-3
432.61,-3,-7,-7,0
432.61,0,-4,-3,6
432.611,8,1,0,9
432.611,9,0,0,9
432.612,10,0,-3,6
432.612,9,0,-2,8
432.613,11,7,7,14
432.614,15,12,13,16
432.614,13,7,7,9
432.615,6,3,3,2
432.615,3,6,4,2
432.616,7,14,9,0
432.616,5,19,11,-4
432.617,0,13,4,-12
432.618,-10,0,-8,-20
432.618,-14,-3,-7,-15
432.619,-9,2,0,-6
432.619,-2,5,2,-5
432.62,-2,6,4,-4
432.62,-3,5,4,-3
432.621,-4,4,7,3
432.622,1,3,8,10
432.622,5,1,5,12
432.623,9,1,6,16
432.623,11,0,3,15
432.624,13,3,3,11
432.625,11,4,1,7
432.625,9,2,0,3
432.626,6,1,-1,3
432.626,8,9,5,6
432.627,10,8,1,-2
432.627,0,0,-7,-12
432.628,-11,-8,-9,-12
432.628,-10,-7,-6,-3
432.629,0,1,3,3
432.63,4,6,8,6
432.63,3,4,5,3
432.631,1,2,4,5
432.631,5,3,2,5
432.632,7,6,4,9
432.633,12,8,3,7
432.633,10,4,-3,0
432.634,4,0,-5,-2
432.634,2,0,-3,-1
432.635,3,6,5,4
432.635,5,8,7,0
432.636,-1,4,0,-12
432.636,-8,5,4,-7
432.637,-2,14,17,8
432.638,8,19,20,13
432.638,12,16,14,10
432.639,7,7,8,7
432.639,4,0,0,3
432.64,-1,-7,-6,-5
432.641,-9,-12,-9,-8
432.641,-9,-8,-4,-1
432.642,-2,-1,-1,-1
432.642,-2,0,-2,-9
432.643,-9,0,-1,-10
432.643,-6,6,6,-2
432.644,0,14,17,12
432.645,13,20,24,21
432.645,18,17,17,16
432.646,11,6,6,9
432.646,3,-5,-6,0
432.647,-3,-15,-13,-3
432.647,-4,-15,-13,0
432.648,1,-9,-9,3
432.649,7,0,-1,9
432.649,11,0,0,12
432.65,14,3,0,11
432.65,15,5,1,9
432.651,13,7,6,12
432.651,14,6,3,8
432.652,9,2,-1,1
432.653,5,2,0,1
432.653,7,11,9,4
432.654,6,10,4,-4
432.654,0,9,4,-6
432.655,-3,5,-1,-13
432.655,-8,3,-2,-13
432.656,-5,5,3,-5
432.657,0,8,5,-4
432.657,-2,3,1,-5
432.658,-5,0,0,-2
432.658,0,0,-2,-3
432.659,1,7,5,3
432.659,6,14,14,8
432.66,7,11,13,10
432.661,5,4,8,8
432.661,1,-3,0,5
432.662,0,-5,-1,3
432.662,-1,-5,0,5
432.663,1,-2,0,3
432.663,4,6,9,4
432.664,5,14,13,0
432.665,0,12,10,-2
432.665,-1,7,5,0
432.666,2,4,0,-1
432.666,0,-4,-7,-2
432.667,-3,-12,-10,0
432.668,-2,-16,-12,4
432.668,3,-10,-10,5
432.669,7,-2,0,13
432.669,14,1,4,23
432.67,28,13,10,25
432.67,33,25,16,16
432.671,23,24,14,1
432.672,2,13,11,-2
432.672,-4,6,8,0
432.673,-6,-3,-3,-12
432.673,-17,-13,-13,-19
432.674,-19,-13,-10,-11
432.674,-9,-1,1,2
432.675,4,7,8,9
432.676,11,9,3,0
432.676,2,2,-5,-9
432.677,-4,0,-3,-8
432.677,-2,2,0,-1
432.678,2,5,2,0
432.678,3,4,3,2
432.679,4,7,11,15
432.68,14,8,11,18
432.68,16,5,6,18
432.681,17,2,-1,10
432.681,14,3,-2,5
432.682,11,3,-4,0
432.682,8,7,-1,-3
432.683,1,2,-2,-5
432.684,-5,-6,-7,-3
432.684,-1,-4,-5,1
432.685,3,1,4,7
432.685,8,8,10,9
432.686,6,6,6,4
432.686,2,1,0,-3
432.687,-4,-4,0,1
432.688,-2,-2,1,4
432.688,3,2,5,9
432.689,8,4,5,6
432.689,3,0,2,2
432.69,0,0,3,1
432.691,-1,0,0,1
432.691,0,-3,-2,1
432.692,4,2,1,4
432.692,7,8,7,4
432.693,7,11,7,1
432.693,4,12,9,0
432.694,4,17,19,7
432.695,5,16,18,11
432.695,5,8,6,1
432.696,-2,-2,-4,-5
432.696,-5,-4,-6,-5
432.697,-2,-1,-8,-12
432.697,-7,-1,-8,-12
432.698,-4,2,-5,-8
432.699,2,9,0,-8
432.699,2,12,1,-13
432.7,-4,10,6,-2
432.7,1,7,3,1
432.701,7,7,3,5
432.701,10,9,9,13
432.702,12,6,8,13
432.703,8,0,6,15
432.703,10,-1,2,11
432.704,8,0,3,12
432.704,9,0,2,5
432.705,0,-7,-7,-7
432.705,-10,-12,-8,-6
432.706,-7,-5,2,10
432.707,10,4,6,13
432.707,12,3,3,12
432.708,10,2,2,9
432.708,8,-2,-5,0
432.709,-1,-8,-11,-5
432.709,-3,-4,-1,3
432.71,6,8,10,13
432.711,13,11,9,7
432.711,6,5,3,3
432.712,2,0,0,3
432.712,5,1,-1,3
432.713,6,4,0,1
432.713,7,12,6,0
432.714,3,12,5,-6
432.715,-4,4,0,-10
432.715,-3,11,5,-5
432.716,0,13,13,2
432.716,0,6,8,3
432.717,2,6,6,2
432.717,0,1,0,-3
432.718,-4,-1,-1,-6
432.719,-5,-1,1,0
432.719,2,1,1,2
432.72,5,4,2,4
432.72,6,8,5,3
432.721,4,7,6,3
432.722,3,3,3,1
432.722,1,2,2,0
432.723,1,2,2,2
432.723,3,3,2,3
432.724,3,0,0,3
432.724,3,-2,-2,5
432.725,5,0,-1,5
432.726,7,4,3,6
432.726,6,2,1,3
432.727,0,-4,-4,0
432.727,-1,-8,-5,5
432.728,5,-6,-6,3
432.728,5,-2,-2,5
432.729,7,-1,0,7
432.73,11,5,6,11
432.73,13,10,11,14
432.731,15,13,12,14
432.731,14,12,10,10
432.732,10,8,2,-2
432.732,0,4,0,-10
432.733,-5,7,2,-10
432.734,-6,7,5,-5
432.734,-1,12,9,-4
432.735,-1,14,11,-3
432.735,-6,3,2,-11
432.736,-15,-10,-10,-12
432.736,-9,-6,-6,-6
432.737,0,2,0,0
432.738,4,7,5,5
432.738,8,8,5,3
432.739,6,12,12,6
432.739,6,14,16,9
432.74,4,6,6,3
432.741,0,0,0,-1
432.741,-1,-2,-3,-2
432.742,0,0,-1,0
432.742,0,0,-3,-2
432.743,0,1,2,4
432.743,4,3,2,5
432.744,6,2,1,5
432.745,7,2,0,4
432.745,5,1,1,7
432.746,8,3,6,15
432.746,16,9,8,14
432.747,10,-1,-2,4
432.747,1,-7,-7,0
432.748,0,-4,-4,0
432.749,1,-1,-2,0
432.749,4,3,3,6
432.75,8,7,6,8
432.75,9,6,4,9
432.751,11,7,2,1
432.751,4,2,-2,-4
432.752,-2,2,2,0
432.753,3,7,7,5
432.753,6,7,5,2
432.754,3,6,5,2
432.754,2,4,1,-6
432.755,-5,1,-1,-11
432.755,-9,3,2,-9
432.756,-6,7,8,-2
432.757,1,16,16,4
432.757,3,12,9,0
432.758,-2,0,1,-3
432.758,-3,-1,1,2
432.759,2,0,2,7
432.759,7,2,2,10
432.76,10,4,1,2
432.761,5,4,4,4
432.761,5,6,6,4
432.762,2,0,0,0
432.762,-3,-6,-4,-3
432.763,-6,-10,-8,-6
432.763,-7,-6,-2,2
432.764,0,-2,1,6
432.765,6,0,0,3
432.765,4,2,0,3
432.766,7,12,11,7
432.766,9,14,13,13
432.767,14,9,5,11
432.767,14,5,-1,3
432.768,6,1,0,7
432.769,7,1,3,12
432.769,14,5,4,13
432.77,12,0,0,10
432.77,8,-5,-10,0
432.771,2,-7,-12,-6
432.772,0,-3,-4,1
432.772,4,2,4,8
432.773,9,7,11,13
432.773,11,5,3,5
432.774,4,0,-8,-12
432.774,-9,-3,-7,-14
432.775,-9,1,-2,-12
432.776,-2,17,7,-19
432.776,-10,22,18,-11
432.777,-11,12,17,3
432.777,0,10,13,8
432.778,4,3,3,1
432.778,0,0,0,-1
432.779,1,5,3,-1
432.78,2,12,12,7
432.78,8,12,9,5
432.781,4,3,0,-1
432.781,0,-2,-2,1
432.782,3,0,-2,3
432.782,6,2,0,3
432.783,5,2,2,4
432.784,3,0,2,5
432.784,3,1,5,7
432.785,5,3,6,8
432.785,5,2,7,7
432.786,1,0,2,4
432.786,0,-6,-3,1
432.787,0,-7,-7,1
432.788,2,-4,-5,1
432.788,5,0,-2,3
432.789,6,2,0,6
432.789,8,4,2,7
432.79,9,5,3,7
432.79,9,6,3,3
432.791,5,6,3,1
432.792,3,5,2,0
432.792,2,4,3,1
432.793,4,8,6,2
432.793,6,11,9,3
432.794,6,12,9,1
432.794,2,8,5,-1
432.795,0,5,2,-5
432.796,-4,0,-2,-8
432.796,-7,-1,0,-4
432.797,-2,2,1,-1
432.797,0,1,2,0
432.798,2,2,1,1
432.798,2,3,3,4
432.799,6,5,2,1
432.8,2,2,1,0
432.8,0,0,0,1
432.801,1,1,0,1
432.801,4,3,1,2
432.802,2,1,1,4
432.802,4,3,5,8
432.803,7,4,3,8
432.804,7,1,2,8
432.804,9,1,1,11
432.805,11,1,0,9
432.805,9,0,-2,2
432.806,3,-3,-3,0
432.806,0,-1,0,4
432.807,5,3,3,6
432.808,7,8,7,5
432.808,4,5,4,2
432.809,1,0,1,5
432.809,5,2,2,5
432.81,7,5,5,6
432.81,6,3,2,2
432.811,4,3,2,0
432.812,2,4,1,0
432.812,1,3,0,-6
432.813,-3,2,-2,-10
432.813,-6,3,0,-6
432.814,-2,8,7,-1
432.815,3,13,10,2
432.815,3,9,6,-1
432.816,0,4,1,-6
432.816,-5,1,1,-5
432.817,-4,1,1,-1
432.817,0,0,0,0
432.818,1,0,-1,0
432.819,2,1,1,3
432.819,4,3,2,4
432.82,6,7,8,10
432.82,11,11,15,16
432.821,15,13,14,14
432.821,11,6,4,5
432.822,2,0,-2,-1
432.823,-2,-4,-4,-1
432.823,0,-2,-4,-2
432.824,0,-2,-3,-1
432.824,0,-1,0,4
432.825,5,1,0,2
432.826,4,3,2,3
432.826,3,3,0,-2
432.827,-3,-3,-2,0
432.827,0,-2,0,5
432.828,6,2,4,10
432.828,10,6,8,14
432.829,14,7,6,13
432.83,13,7,6,12
432.83,12,4,1,7
432.831,6,0,-2,-1
432.831,0,-1,-2,-1
432.832,0,2,0,-2
432.832,0,4,1,-4
432.833,-1,8,7,-2
432.834,0,10,7,-4
432.834,-2,5,1,-7
432.835,-3,5,1,-7
432.835,0,7,1,-8
432.836,-3,6,3,-2
432.836,1,9,6,2
432.837,5,8,4,-2
432.838,0,4,5,0
432.838,0,4,6,3
432.839,3,5,7,3
432.839,1,3,6,5
432.84,1,1,5,6
432.84,3,0,3,8
432.841,7,2,1,5
432.842,4,0,1,5
432.842,4,-1,-3,-1
432.843,-1,-3,-3,0
432.843,1,0,0,5
432.844,6,3,1,5
432.844,6,2,0,2
432.845,5,0,0,5
432.846,8,3,0,5
432.846,8,2,0,7
432.847,8,1,0,9
432.847,11,1,0,10
432.848,11,2,0,5
432.848,6,0,0,6
432.849,6,1,2,5
432.85,4,0,0,1
432.85,1,0,0,0
432.851,0,2,2,0
432.851,0,2,1,0
432.852,-1,1,0,-1
432.852,1,7,4,-3
432.853,0,8,7,1
432.854,2,9,9,3
432.854,2,8,9,6
432.855,7,11,8,1
432.855,1,8,3,-7
432.856,-6,4,3,-5
432.856,-4,4,6,1
432.857,1,5,3,1
432.858,2,2,1,2
432.858,2,1,1,2
432.859,3,1,0,2
432.859,4,2,0,1
432.86,2,1,0,2
432.86,2,1,2,3
432.861,4,3,4,5
432.862,5,4,4,6
432.862,5,2,0,0
432.863,1,0,0,-1
432.863,0,0,0,2
432.864,3,2,3,6
432.864,6,4,0,1
432.865,4,4,0,0
432.866,4,2,-2,-1
432.866,1,0,0,8
432.867,10,1,-1,8
432.867,9,0,-1,5
432.868,6,0,0,6
432.868,6,1,2,7
432.869,7,2,2,6
432.87,7,2,0,3
432.87,7,6,3,4
432.871,7,8,5,2
432.871,4,6,5,4
432.872,5,8,11,9
432.873,5,6,8,4
432.873,0,0,0,-5
432.874,-5,-2,-3,-6
432.874,-3,1,0,-4
432.875,-1,2,-1,-8
432.875,-6,0,-1,-7
432.876,-3,5,3,-3
432.877,1,16,13,0
432.877,0,11,11,0
432.878,1,10,10,2
432.878,0,7,8,2
432.879,0,2,3,3
432.879,2,2,3,3
432.88,3,1,0,1
432.881,1,-1,-2,0
432.881,1,0,-1,0
432.882,3,2,0,3
432.882,6,5,3,5
432.883,6,3,0,2
432.883,2,0,-3,-1
432.884,1,0,0,4
432.885,6,3,3,7
432.885,7,4,3,6
432.886,7,2,3,6
432.886,5,1,1,7
432.887,6,0,0,6
432.887,6,0,1,9
432.888,8,0,0,7
432.889,7,0,0,6
432.889,6,0,0,4
432.89,5,2,2,5
432.89,6,5,4,6
432.891,5,4,3,1
432.891,2,1,-1,-2
432.892,0,1,-3,-5
432.893,0,5,1,-4
432.893,0,9,6,0
432.894,4,13,10,2
432.894,3,11,10,1
432.895,1,7,6,0
432.895,-1,3,2,-4
432.896,-5,0,-1,-6
432.897,-5,-1,-1,-5
432.897,-4,0,0,-2
432.898,0,3,3,1
432.898,3,5,5,4
432.899,5,5,5,4
432.9,5,5,4,5
432.9,6,5,5,6
432.901,6,5,5,6
432.901,5,1,1,3
432.902,2,0,0,2
432.902,1,0,1,2
432.903,1,0,0,3
432.904,3,0,0,3
432.904,5,1,0,1
432.905,4,2,-1,1
432.905,3,2,0,3
432.906,6,3,0,4
432.906,5,0,1,6
432.907,7,2,5,11
432.908,9,2,3,8
432.908,5,0,1,7
432.909,6,0,3,8
432.909,6,2,4,8
432.91,5,2,1,2
432.91,0,0,0,0
432.911,0,0,0,-1
432.912,0,2,2,0
432.912,1,5,4,0
432.913,3,6,2,-2
432.913,3,7,0,-5
432.914,2,8,2,-4
432.914,2,11,5,-2
432.915,3,10,1,-5
432.916,1,8,2,-3
432.916,1,8,6,0
432.917,2,6,4,1
432.917,2,3,3,3
432.918,5,5,4,4
432.918,6,6,4,2
432.919,2,2,1,-1
432.92,0,0,1,0
432.92,0,1,2,1
432.921,0,0,0,0
432.921,-2,-1,0,1
432.922,2,2,3,2
432.922,1,2,3,3
432.923,3,2,4,5
432.924,4,2,3,5
432.924,6,4,4,5
432.925,6,5,5,6
432.925,7,6,5,6
432.926,6,4,5,8
432.926,5,0,1,6
432.927,3,-3,-2,1
432.928,0,-4,-1,2
432.928,0,-3,0,6
432.929,2,0,1,6
432.929,6,4,4,8
432.93,8,4,4,5
432.931,6,3,0,1
432.931,5,4,1,1
432.932,3,3,0,0
432.932,4,7,4,1
432.933,5,11,8,2
432.933,3,9,6,-2
432.934,-3,4,2,-6
432.935,-5,3,2,-3
432.935,-3,0,-4,-9
432.936,-5,1,-1,-4
432.936,0,6,5,0
432.937,0,5,5,2
432.937,2,4,4,1
432.938,3,3,1,0
432.939,1,2,-1,-1
432.939,3,3,-2,-1
432.94,5,6,2,3
432.94,8,6,1,3
432.941,9,5,-1,4
432.941,12,10,8,11
432.942,13,16,23,23
432.943,12,7,9,10
432.943,2,-1,2,2
432.944,-3,-4,1,2
432.944,-4,-5,1,2
432.945,-5,-8,-4,-2
432.946,-6,-11,-10,-4
432.946,-3,-11,-13,-3
432.947,0,-5,-5,5
432.947,7,2,3,11
432.948,8,0,-1,6
432.948,7,-1,-7,1
432.949,10,6,0,5
432.95,16,11,0,2
432.95,13,10,-3,-1
432.951,11,13,0,0
432.951,12,16,7,5
432.952,16,22,17,10
432.952,14,23,19,5
432.953,3,12,11,-3
432.954,-7,4,8,-5
432.954,-11,-2,4,-3
432.955,-9,0,4,-2
432.955,-7,0,2,-3
432.956,-7,-2,2,0
432.956,-6,-2,4,2
432.957,-6,-7,0,0
432.958,-6,-8,-3,-1
432.958,-5,-7,-3,-1
432.959,-3,-6,-7,-4
432.959,0,0,-3,0
432.96,7,10,10,11
432.96,13,13,13,13
432.961,9,10,13,12
432.962,6,5,7,8
432.962,5,3,3,5
432.963,6,5,3,4
432.963,8,8,2,1
432.964,4,4,-4,-5
432.964,0,-4,-14,-10
432.965,0,-5,-19,-12
432.966,4,0,-13,-5
432.966,11,10,0,6
432.967,19,17,12,17
432.967,22,17,15,18
432.968,18,13,15,17
432.968,11,5,6,8
432.969,2,-4,-3,-1
432.97,-5,-5,0,0
432.97,-2,-4,-2,0
432.971,0,-1,-2,-1
432.971,2,0,-8,-7
432.972,0,0,-11,-12
432.973,-2,3,-2,-4
432.973,2,12,13,7
432.974,7,16,20,11
432.974,5,11,16,7
432.975,1,7,11,2
432.975,-3,2,6,0
432.976,-7,0,5,0
432.977,-8,-3,4,0
432.977,-5,-2,1,0
432.978,-2,0,1,-1
432.978,-3,-2,-3,-4
432.979,-3,-3,-8,-6
432.979,1,1,-5,-2
432.98,8,9,4,5
432.98,12,10,5,6
432.981,9,6,1,3
432.982,9,8,7,8
432.982,10,8,7,9
432.983,9,6,5,6
432.983,5,3,4,5
432.984,3,0,1,4
432.985,1,-1,2,5
432.985,1,0,3,5
432.986,0,-1,6,9
432.986,0,-7,2,7
432.987,0,-11,-9,0
432.987,0,-8,-10,-1
432.988,3,-2,-6,1
432.989,7,3,0,5
432.989,11,8,2,6
432.99,11,9,4,5
432.99,11,11,4,4
432.991,9,11,4,1
432.991,7,8,3,0
432.992,4,9,6,0
432.993,3,9,6,0
432.993,3,10,8,0
432.994,0,7,7,-1
432.994,-3,5,5,-3
432.995,-7,1,4,-3
432.996,-7,0,3,-2
432.996,-6,-1,1,-4
432.997,-5,0,2,-2
432.997,-4,-1,1,0
432.998,-1,0,4,2
432.998,1,2,3,3
432.999,5,4,2,2
433,6,3,-1,-1
433,3,2,-2,0
433.001,5,5,2,3
433.001,9,7,3,5
433.002,9,9,3,4
433.002,8,5,1,3
433.003,5,3,0,1
433.004,6,5,2,4
433.004,6,4,1,5
433.005,7,4,2,6
433.005,7,7,8,9
433.006,6,0,-1,2
433.006,1,-5,-5,1
433.007,2,-2,0,7
433.008,5,0,2,7
433.008,4,-1,0,4
433.009,4,0,0,4
433.009,6,3,2,4
433.01,5,4,1,1
433.01,4,4,0,-1
433.011,2,3,0,0
433.012,1,6,4,2
433.012,5,10,8,2
433.013,3,9,8,2
433.013,2,8,6,0
433.014,0,4,3,-3
433.014,-1,4,3,-4
433.015,-2,5,4,-4
433.016,-3,3,3,-2
433.016,-2,5,4,-1
433.017,-3,1,3,0
433.017,-3,0,3,1
433.018,0,0,3,2
433.018,0,1,2,1
433.019,1,0,-3,-1
433.02,2,0,-6,-3
433.02,5,4,0,2
433.021,8,9,7,9
433.021,10,9,10,11
433.022,9,8,11,12
433.022,8,4,6,9
433.023,6,0,-2,0
433.024,2,-3,-8,-4
433.024,0,-2,-7,-2
433.025,3,0,-3,0
433.025,6,3,0,3
433.026,6,2,1,7
433.026,8,4,4,8
433.027,8,5,8,10
433.028,7,2,6,9
433.028,4,0,4,8
433.029,4,2,7,8
433.029,3,0,1,2
433.03,0,-2,-5,-4
433.03,-2,-2,-3,-3
433.031,-1,1,0,0
433.032,2,5,3,0
433.032,3,6,2,-1
433.033,3,9,4,-1
433.033,3,11,8,1
433.034,4,6,0,-5
433.034,1,7,0,-5
433.035,1,9,5,-1
433.036,3,7,2,-2
433.036,1,5,1,-1
433.037,1,4,1,0
433.037,2,4,3,3
433.038,4,5,3,2
433.038,3,3,2,3
433.039,3,3,4,4
433.04,4,4,9,8
433.04,4,4,10,10
433.041,3,0,3,5
433.041,0,-2,0,2
433.042,0,-3,0,1
433.043,0,-1,0,2
433.043,1,0,1,3
433.044,2,0,1,3
433.044,3,1,0,3
433.045,4,0,-1,1
433.045,3,0,-4,0
433.046,3,-1,-4,1
433.047,7,1,-1,4
433.047,9,5,2,7
433.048,9,4,4,10
433.048,11,8,9,12
433.049,10,7,11,12
433.049,7,5,9,8
433.05,3,3,8,6
433.051,0,-2,1,0
433.051,-3,-3,-2,-2
433.052,-3,-2,-2,-4
433.052,-2,0,-2,-7
433.053,-1,3,-1,-7
433.053,0,7,0,-4
433.054,3,10,3,-2
433.055,4,12,6,0
433.055,4,10,7,1
433.056,4,9,8,3
433.056,1,5,5,1
433.057,0,3,4,1
433.058,0,2,3,0
433.058,-1,-1,-4,-5
433.059,-3,-3,-6,-6
433.059,1,3,0,-1
433.06,4,7,3,4
433.06,8,9,7,7
433.061,7,7,7,8
433.062,7,6,7,8
433.062,6,4,5,6
433.063,4,2,2,4
433.063,2,0,0,2
433.064,1,-3,-3,0
433.064,1,-1,-2,1
433.065,4,1,0,3
433.065,5,1,0,5
433.066,4,0,0,5
433.067,5,0,0,6
433.067,5,0,1,8
433.068,7,1,0,5
433.068,6,1,1,6
433.069,6,1,0,2
433.069,5,4,1,3
433.07,6,6,5,4
433.071,5,6,5,2
433.071,3,3,2,0
433.072,1,3,0,-2
433.072,0,4,0,-4
433.073,1,8,3,-2
433.074,3,10,6,-1
433.074,1,9,6,-2
433.075,0,7,6,0
433.075,0,6,6,0
433.076,0,5,5,0
433.076,-2,3,3,0
433.077,-1,1,3,1
433.078,0,1,5,4
433.078,0,0,2,1
433.079,-1,0,0,0
433.079,0,0,0,0
433.08,0,0,-3,0
433.08,2,0,-3,0
433.081,6,4,1,4
433.082,9,7,2,4
433.082,9,6,1,4
433.083,8,7,4,5
433.083,8,5,4,6
433.084,8,6,5,7
433.085,6,3,4,6
433.085,5,1,2,4
433.086,1,-3,-1,3
433.086,1,-5,-3,3
433.087,3,-3,-3,4
433.087,5,-2,-3,2
433.088,5,0,-2,3
433.089,6,4,3,7
433.089,7,5,5,7
433.09,7,7,6,6
433.09,5,5,6,4
433.091,3,5,6,3
433.091,1,3,2,-1
433.092,0,2,0,-5
433.093,0,3,-2,-8
433.093,0,6,0,-5
433.094,2,8,3,-2
433.094,2,11,7,0
433.095,3,10,7,0
433.095,2,8,7,0
433.096,0,6,7,2
433.097,0,4,6,2
433.097,-1,0,2,0
433.098,-2,-1,0,0
433.098,-1,0,0,0
433.099,0,0,1,2
433.099,1,1,0,2
433.1,3,2,2,3
433.101,3,3,2,3
433.101,4,1,0,2
433.102,5,3,0,2
433.102,5,4,0,3
433.103,7,5,2,4
433.103,7,6,4,6
433.104,6,4,4,6
433.105,5,3,3,4
433.105,4,2,1,4
433.106,4,1,6,10
433.106,4,0,6,10
433.107,2,-4,-2,2
433.107,-1,-7,-3,1
433.108,1,-3,-2,3
433.109,3,0,0,3
433.109,4,2,0,3
433.11,6,5,2,4
433.11,7,8,3,2
433.112,6,7,3,1
433.112,5,6,3,0
433.112,3,7,4,0
433.113,3,8,6,0
433.113,2,10,10,2
433.114,0,6,6,-2
433.114,-3,2,2,-5
433.115,-4,2,0,-6
433.115,-3,3,0,-4
433.116,-2,3,0,-3
433.117,0,2,0,-1
433.117,2,4,0,0
433.118,5,6,1,1
433.118,7,8,5,4
433.119,9,9,5,5
433.12,6,7,6,5
433.12,6,5,5,4
433.121,3,0,0,0
433.121,1,0,-2,0
433.122,1,0,0,2
433.122,3,0,1,4
433.123,4,2,2,5
433.123,5,3,6,9
433.124,6,5,9,11
433.125,5,2,3,4
433.125,0,-5,-4,0
433.126,-1,-7,-8,-2
433.126,0,-5,-6,1
433.127,5,1,-1,5
433.128,8,3,1,7
433.128,10,6,4,8
433.129,10,6,5,8
433.129,9,7,5,6
433.13,7,6,3,2
433.13,4,4,1,0
433.131,2,3,3,0
433.132,2,4,3,0
433.132,1,5,2,-2
433.133,0,5,4,-1
433.133,0,6,4,-2
433.134,-1,6,4,-2
433.134,-1,6,4,-2
433.135,0,6,2,-2
433.136,-1,5,2,-3
433.136,-1,3,3,0
433.137,0,3,3,1
433.137,1,4,4,2
433.138,2,3,3,3
433.138,3,2,2,2
433.139,2,2,2,3
433.14,3,2,2,3
433.14,3,3,3,5
433.141,5,4,3,4
433.141,2,2,3,4
433.142,2,2,4,6
433.142,3,2,4,6
433.143,3,0,0,3
433.144,2,0,-2,0
433.144,3,-1,-5,-2
433.145,3,0,-3,0
433.145,5,0,-2,2
433.146,5,1,0,6
433.146,9,6,8,14
433.147,13,8,9,14
433.148,9,1,2,7
433.148,6,0,0,4
433.149,4,1,0,3
433.149,3,0,0,0
433.15,0,0,-1,-1
433.15,2,1,-2,-2
433.151,4,5,0,0
433.152,5,9,5,1
433.152,6,11,8,1
433.153,3,9,8,2
433.153,2,7,6,0
433.154,1,6,4,-1
433.155,0,3,0,-5
433.155,-3,1,-2,-7
433.156,-4,2,1,-3
433.156,-3,2,4,1
433.157,0,4,6,3
433.157,1,3,4,1
433.158,0,2,1,0
433.159,1,2,0,-1
433.159,1,1,0,0
433.16,2,4,3,5
433.16,7,7,10,10
433.161,8,5,7,8
433.161,6,3,3,6
433.162,4,2,2,4
433.163,4,1,1,3
433.163,3,1,1,3
433.164,4,0,1,3
433.164,3,0,0,2
433.165,2,0,-1,2
433.165,2,0,-1,3
433.166,4,0,0,5
433.167,5,0,0,4
433.167,5,0,-1,5
433.168,5,1,2,8
433.168,8,5,6,9
433.169,8,4,3,5
433.169,4,3,2,2
433.17,2,2,3,3
433.171,3,5,5,2
433.171,2,4,4,0
433.172,0,4,3,-1
433.172,0,5,3,-2
433.173,0,5,1,-3
433.173,0,4,-1,-7
433.174,0,7,2,-3
433.175,1,9,7,1
433.175,1,7,5,0
433.176,2,6,5,0
433.176,1,4,4,0
433.177,0,3,2,0
433.178,0,2,0,0
433.178,0,1,2,2
433.179,1,3,3,4
433.179,4,4,3,4
433.18,4,3,3,4
433.18,4,3,2,3
433.181,3,1,1,3
433.181,3,2,2,4
433.182,4,2,0,3
433.183,5,1,0,2
433.183,3,0,-2,1
433.184,3,1,-1,2
433.184,6,3,1,4
433.185,6,3,1,4
433.186,5,1,0,5
433.186,5,1,1,6
433.187,5,1,2,7
433.187,5,0,1,6
433.188,5,0,0,4
433.188,5,2,1,3
433.189,4,1,1,2
433.19,5,4,3,3
433.19,5,5,4,2
433.191,4,7,6,3
433.191,5,8,8,3
433.192,2,5,4,-1
433.192,-1,4,2,-3
433.193,-1,3,0,-4
433.194,-1,4,0,-6
433.194,-1,5,1,-4
433.195,-1,5,2,-2
433.195,0,6,5,0
433.196,3,6,5,1
433.196,2,5,6,3
433.197,2,5,5,3
433.198,1,1,2,2
433.198,1,0,0,1
433.199,1,2,4,4
433.199,4,2,2,3
433.2,2,1,2,3
433.201,1,1,2,3
433.201,1,0,1,4
433.202,4,1,1,5
433.202,5,1,0,2
433.203,4,2,0,3
433.203,5,2,0,3
433.204,5,2,1,4
433.205,6,5,4,5
433.205,8,8,8,7
433.206,5,2,2,5
433.206,3,-2,-1,3
433.207,3,-1,-1,4
433.207,2,-2,-1,3
433.208,4,0,0,3
433.209,5,2,1,4
433.209,6,4,5,5
433.21,6,5,4,4
433.21,3,5,5,2
433.211,2,4,4,2
433.211,1,5,5,1
433.212,0,4,3,-1
433.213,1,5,0,-4
433.213,2,6,-1,-7
433.214,0,6,-1,-7
433.214,0,6,0,-5
433.215,2,8,3,-1
433.215,4,10,6,0
433.216,2,7,9,6
433.217,2,5,9,6
433.217,1,2,4,4
433.218,1,0,0,0
433.218,0,-1,-2,0
433.219,0,0,0,0
433.219,1,1,0,2
433.22,3,3,3,5
433.221,6,3,2,4
433.221,6,3,1,3
433.222,5,2,0,3
433.222,4,1,0,2
433.223,3,1,2,5
433.223,6,5,4,5
433.224,7,4,3,5
433.225,4,2,0,2
433.225,1,0,0,2
433.226,2,-3,-1,4
433.226,5,0,0,5
433.227,6,2,1,6
433.227,6,1,1,6
433.228,6,2,2,6
433.229,6,3,5,7
433.229,6,5,6,6
433.23,5,5,5,4
433.23,2,3,1,0
433.231,0,0,-3,-4
433.232,0,4,0,-4
433.232,1,7,1,-3
433.233,2,8,1,-4
433.233,1,8,2,-4
433.234,1,9,7,0
433.234,1,11,12,4
433.235,1,7,8,2
433.236,0,3,3,-1
433.236,-2,-1,-1,-4
433.237,-3,0,1,0
433.237,0,3,5,4
433.238,2,3,4,3
433.238,2,3,5,5
433.239,3,3,4,4
433.24,2,1,2,2
433.24,0,0,1,1
433.241,1,0,0,2
433.241,2,0,0,3
433.242,6,3,1,4
433.242,6,1,-3,0
433.243,5,0,-5,-1
433.244,5,3,0,4
433.244,10,8,5,7
433.245,10,7,2,6
433.245,8,4,1,4
433.246,7,2,0,4
433.246,6,0,0,4
433.247,5,1,2,6
433.248,5,1,2,6
433.248,5,1,2,4
433.249,4,2,3,4
433.249,4,3,5,5
433.25,3,2,2,3
433.25,2,2,1,0
433.251,1,3,3,1
433.252,2,5,4,0
433.252,0,3,0,-7
433.253,-3,2,0,-7
433.253,-4,5,4,-3
433.254,0,9,8,0
433.254,1,9,7,0
433.255,0,6,4,-1
433.256,0,4,4,0
433.256,0,3,3,2
433.257,2,3,2,2
433.257,3,4,3,2
433.258,2,3,3,2
433.259,4,4,5,5
433.259,3,3,4,5
433.26,4,3,3,4
433.26,2,0,1,1
433.261,1,0,-1,0
433.261,1,0,-1,1
433.262,4,2,2,4
433.262,6,3,1,4
433.263,6,3,0,2
433.264,4,1,1,4
433.264,5,3,2,4
433.265,5,2,0,4
433.265,5,0,0,5
433.266,6,0,-1,5
433.267,6,1,0,5
433.267,6,0,0,5
433.268,6,3,4,8
433.268,8,5,6,8
433.269,6,5,6,6
433.269,3,2,3,2
433.27,0,0,0,0
433.271,-1,0,0,-2
433.271,0,2,0,0
433.272,3,5,0,-3
433.272,4,8,2,-3
433.273,3,9,2,-4
433.273,1,9,3,-2
433.274,1,9,6,0
433.275,1,9,7,0
433.275,2,7,6,0
433.276,0,3,3,0
433.276,-1,2,3,0
433.277,0,2,2,0
433.277,0,2,2,1
433.278,1,2,3,2
433.279,2,3,4,3
433.279,2,2,3,4
433.28,2,1,0,1
433.28,2,0,0,1
433.281,3,1,0,2
433.282,5,3,2,4
433.282,5,3,1,4
433.283,5,3,2,5
433.283,6,3,2,4
433.284,5,3,2,4
433.284,5,3,3,5
433.285,3,0,1,5
433.285,2,-4,-3,1
433.286,2,-3,-5,2
433.287,6,1,0,6
433.287,7,3,3,8
433.288,7,3,4,7
433.288,6,4,4,7
433.289,5,3,4,5
433.29,4,4,5,3
433.29,1,3,6,3
433.291,1,2,3,0
433.291,0,2,1,-1
433.292,0,4,0,-4
433.292,0,6,1,-4
433.293,0,7,3,-4
433.293,0,7,5,-1
433.294,0,6,5,-1
433.295,0,7,5,0
433.295,0,5,4,0
433.296,0,3,2,0
433.296,0,1,1,0
433.297,0,2,3,1
433.298,3,4,2,1
433.298,4,4,3,3
433.299,4,3,1,2
433.299,3,1,0,1
433.3,3,2,3,3
433.3,4,4,5,6
433.301,6,4,3,5
433.302,5,2,1,3
433.302,3,1,0,3
433.303,3,0,0,3
433.303,5,2,1,3
433.304,5,3,2,4
433.304,4,1,1,4
433.305,4,0,0,3
433.306,3,-1,0,5
433.306,5,0,0,6
433.307,5,0,-1,4
433.307,7,1,-2,3
433.308,7,1,-3,1
433.308,7,3,-2,1
433.309,7,8,5,5
433.31,8,12,13,10
433.31,7,10,11,6
433.311,2,4,5,0
433.311,0,2,0,-3
433.312,-3,1,-1,-6
433.312,-3,2,0,-5
433.313,-2,3,0,-4
433.314,0,6,4,-1
433.314,1,8,6,0
433.315,0,6,6,0
433.315,0,3,3,0
433.316,-1,2,1,0
433.316,0,1,1,0
433.317,2,4,0,0
433.318,3,4,0,0
433.318,3,4,1,1
433.319,4,4,4,4
433.319,5,6,6,8
433.32,8,7,7,8
433.32,6,3,1,2
433.321,2,0,-1,0
433.322,1,0,0,2
433.322,2,1,2,4
433.323,3,0,1,3
433.323,3,0,0,4
433.324,3,1,0,3
433.324,4,0,0,3
433.325,3,0,0,6
433.326,7,1,0,6
433.326,7,0,0,5
433.327,6,1,1,6
433.327,6,1,3,8
433.328,6,1,2,5
433.329,5,3,2,3
433.329,5,3,1,1
433.33,2,3,0,0
433.33,2,3,0,-1
433.331,3,6,3,0
433.331,3,7,3,-1
433.332,2,9,5,-1
433.333,1,10,10,2
433.333,2,9,7,0
433.334,0,5,3,-3
433.334,-1,3,1,-4
433.335,-1,3,2,-2
433.335,-1,3,2,-1
433.336,-1,2,3,1
433.337,1,3,4,2
433.337,1,3,4,3
433.338,2,2,3,2
433.338,2,2,3,3
433.339,2,2,2,3
433.34,2,1,0,2
433.34,3,0,-2,0
433.341,4,1,-2,0
433.341,5,3,1,4
433.342,7,5,4,6
433.342,7,5,3,6
433.343,7,4,5,7
433.343,6,3,3,5
433.344,3,1,0,2
433.345,2,-1,0,2
433.345,1,-3,-2,3
433.346,4,-2,-3,4
433.346,7,2,0,5
433.347,6,1,1,6
433.348,8,3,2,6
433.348,7,3,1,4
433.349,6,4,2,3
433.349,6,5,2,2
433.35,3,5,3,1
433.35,3,4,3,0
433.351,2,5,1,0
433.352,3,6,2,-1
433.352,2,9,9,3
433.353,2,9,10,3
433.353,0,6,7,0
433.354,-3,2,2,-4
433.354,-5,0,0,-7
433.355,-5,0,-1,-7
433.356,-4,0,-1,-4
433.356,-1,2,1,0
433.357,1,5,4,2
433.357,4,7,6,4
433.358,4,5,5,4
433.358,4,5,6,6
433.359,5,4,4,5
433.36,5,2,3,3
433.36,5,3,1,2
433.361,4,3,1,2
433.361,3,1,0,3
433.362,4,1,0,1
433.362,3,1,0,3
433.363,6,4,1,4
433.364,7,3,0,2
433.364,5,3,3,4
433.365,4,0,0,4
433.365,3,-2,-2,4
433.366,4,0,4,9
433.366,6,2,9,12
433.367,5,-1,2,7
433.368,3,-1,0,3
433.368,2,0,0,2
433.369,3,2,0,1
433.369,1,0,0,-1
433.37,1,2,0,0
433.37,2,4,1,1
433.371,6,9,4,0
433.372,5,10,5,0
433.372,3,9,6,0
433.373,1,7,5,0
433.373,1,7,5,0
433.374,1,6,4,-2
433.375,0,5,1,-4
433.375,-2,1,1,-4
433.376,-3,1,1,0
433.376,0,3,3,1
433.377,2,4,4,2
433.377,2,3,3,1
433.378,2,3,2,1
433.379,1,2,1,3
433.379,3,3,1,2
433.38,3,3,4,5
433.38,4,3,3,5
433.381,5,3,3,4
433.381,4,2,1,4
433.382,5,3,2,4
433.383,4,1,0,3
433.383,4,1,-1,2
433.384,4,1,0,3
433.384,5,2,1,4
433.385,5,1,2,7
433.385,5,0,1,6
433.386,5,-1,0,5
433.387,4,0,-2,3
433.387,5,0,-1,3
433.388,6,2,0,4
433.388,6,4,0,3
433.389,7,7,5,5
433.389,6,7,7,6
433.39,5,7,8,5
433.391,4,7,8,4
433.391,2,4,1,-4
433.392,-3,0,-3,-8
433.392,-3,2,-2,-7
433.393,-1,6,1,-4
433.393,0,9,6,0
433.394,1,8,7,0
433.395,1,7,7,1
433.395,1,6,6,1
433.396,0,4,5,2
433.396,0,2,5,3
433.397,0,0,2,1
433.397,0,0,0,0
433.398,0,0,0,0
433.399,1,0,0,0
433.399,2,1,0,2
433.4,2,2,2,4
433.4,5,5,4,6
433.401,8,6,6,7
433.401,6,3,1,3
433.402,4,1,0,2
433.403,3,0,0,2
433.403,4,2,2,4
433.404,4,2,1,4
433.404,5,2,0,3
433.405,3,-1,-3,2
433.405,4,-1,-3,3
433.406,6,3,4,10
433.407,8,2,3,8
433.407,7,2,2,6
433.408,6,2,3,6
433.408,5,4,5,6
433.409,5,4,4,4
433.409,2,2,2,0
433.41,0,0,0,-2
433.411,0,2,-1,-4
433.411,0,4,0,-4
433.412,1,8,1,-4
433.412,1,10,7,0
433.413,4,10,8,0
433.414,3,10,6,0
433.414,0,7,4,-1
433.415,-1,4,3,-2
433.415,-1,3,2,-1
433.416,-1,3,3,0
433.416,0,3,1,0
433.417,2,2,1,0
433.418,1,2,1,1
433.418,2,3,2,3
433.419,4,4,3,4
433.419,6,5,3,4
433.42,5,4,3,5
433.42,4,2,3,4
433.421,3,0,0,2
433.422,2,0,-1,1
433.422,1,0,0,3
433.423,3,0,1,4
433.423,4,1,0,2
433.424,4,1,0,3
433.424,6,3,2,6
433.425,5,0,1,7
433.426,6,0,0,6
433.426,6,1,1,6
433.427,5,0,2,7
433.427,7,4,4,7
433.428,6,3,5,6
433.428,4,3,4,4
433.429,1,1,2,1
433.43,0,0,0,-1
433.43,0,2,0,-1
433.431,2,4,1,-1
433.431,1,5,0,-4
433.432,2,7,0,-4
433.433,2,9,5,-1
433.433,2,10,6,0
433.434,1,8,5,-1
433.434,1,7,5,0
433.435,1,7,7,1
433.435,0,5,5,1
433.436,0,2,2,0
433.437,0,2,2,0
433.437,0,1,2,1
433.438,0,0,3,4
433.438,2,1,2,4
433.439,3,1,2,4
433.439,4,1,0,2
433.44,3,1,0,1
433.441,3,0,-1,1
433.441,3,2,0,2
433.442,4,4,4,5
433.442,4,3,3,5
433.443,5,4,4,4
433.443,4,2,1,2
433.444,3,1,0,2
433.444,2,0,-1,2
433.445,4,0,-2,4
433.446,5,0,-1,4
433.446,8,4,2,8
433.447,10,6,6,10
433.447,10,5,5,8
433.448,6,0,-2,0
433.449,3,1,-2,0
433.449,4,5,4,3
433.45,4,4,3,1
433.45,1,3,1,-1
433.451,1,6,5,0
433.451,2,9,11,4
433.452,1,8,10,2
433.453,-2,2,2,-4
433.453,-5,0,0,-5
433.454,-3,1,0,-5
433.454,-2,3,0,-4
433.455,0,3,0,-4
433.455,0,2,-1,-3
433.456,3,6,4,3
433.457,6,10,11,9
433.457,7,7,8,6
433.458,4,3,4,4
433.458,2,1,1,2
433.459,2,1,0,1
433.459,2,1,0,1
433.46,1,2,2,3
433.461,3,1,3,5
433.461,4,3,4,6
433.462,5,3,2,5
433.462,4,1,0,2
433.463,3,0,0,3
433.464,4,2,0,3
433.464,3,0,0,3
433.465,3,0,-2,3
433.465,5,0,-1,4
433.466,6,0,0,5
433.466,6,0,0,5
433.467,6,3,3,7
433.467,8,4,3,6
433.468,7,4,2,4
433.469,6,6,3,4
433.469,5,4,3,2
433.47,4,4,3,3
433.47,3,5,5,2
433.471,3,6,6,0
433.472,0,5,2,-3
433.472,-1,2,0,-6
433.473,-4,3,2,-5
433.473,-2,6,5,-2
433.474,0,5,4,-2
433.474,0,5,3,-1
433.475,0,4,3,0
433.476,0,4,3,0
433.476,2,4,3,2
433.477,2,4,4,2
433.477,2,4,3,3
433.478,4,4,3,4
433.478,4,3,2,4
433.479,4,3,2,3
433.48,3,1,1,2
433.48,3,2,1,3
433.481,4,2,1,3
433.481,4,2,2,4
433.482,4,1,0,3
433.482,4,2,1,3
433.483,3,1,1,4
433.484,3,2,3,5
433.484,4,1,1,5
433.485,3,-1,-1,4
433.485,3,-2,-2,4
433.486,4,-1,0,4
433.486,5,0,0,6
433.487,7,3,2,6
433.488,7,4,2,5
433.488,6,4,1,2
433.489,6,4,0,0
433.489,5,6,3,1
433.49,5,7,4,3
433.49,5,8,6,1
433.491,3,7,5,-1
433.492,0,7,5,0
433.492,0,6,4,-2
433.493,-2,4,3,-3
433.493,-2,3,2,-4
433.494,-2,4,5,0
433.494,0,4,5,0
433.495,-1,0,-1,-3
433.496,-1,1,0,-2
433.496,0,4,2,1
433.497,3,6,5,3
433.497,5,5,4,4
433.498,5,4,3,3
433.499,4,3,3,3
433.499,3,2,4,5
433.5,3,3,6,6
433.5,3,0,3,5
433.501,2,0,0,3
433.501,4,1,0,3
433.502,4,0,-1,1
433.503,3,0,-2,1
433.503,3,1,0,2
433.504,5,3,1,4
433.504,5,2,2,5
433.505,5,0,0,4
433.505,4,-1,0,5
433.506,6,1,1,6
433.507,7,1,2,7
433.507,8,3,3,6
433.508,6,2,2,4
433.508,5,3,3,4
433.509,5,5,3,2
433.509,5,6,4,2
433.51,4,4,2,0
433.511,2,6,2,-1
433.511,0,6,3,-2
433.512,0,7,5,-1
433.512,0,6,5,-2
433.513,0,7,4,-2
433.513,-1,4,2,-4
433.514,-2,4,3,-3
433.515,-1,3,2,-1
433.515,0,2,2,0
433.516,0,3,3,0
433.516,2,4,4,3
433.517,2,4,4,3
433.518,3,3,4,4
433.518,4,4,5,5
433.519,4,4,4,5
433.519,3,1,1,2
433.52,1,0,-1,0
433.52,2,0,0,2
433.521,3,0,0,3
433.522,6,2,0,2
433.522,5,1,-2,0
433.523,6,5,2,4
433.523,7,5,5,7
433.524,7,4,3,6
433.524,4,0,2,6
433.525,5,0,0,6
433.525,5,0,0,4
433.526,4,-1,-1,3
433.527,4,-1,-1,4
433.527,6,2,0,3
433.528,7,4,1,4
433.528,7,6,4,4
433.529,6,6,4,2
433.53,3,4,3,1
433.53,2,4,4,0
433.531,1,6,5,0
433.531,1,5,4,-1
433.532,0,6,4,-2
433.532,-1,5,3,-2
433.533,0,5,3,-1
433.534,0,5,4,0
433.534,1,5,3,-2
433.535,-1,1,2,-2
433.535,-2,2,2,0
433.536,0,2,2,0
433.536,0,2,2,0
433.537,0,2,2,0
433.538,1,2,0,0
433.538,2,2,0,1
433.539,4,4,2,3
433.539,5,5,5,6
433.54,7,6,4,6
433.54,7,4,2,4
433.541,6,2,2,4
433.542,6,3,2,4
433.542,6,2,0,4
433.543,6,4,3,4
433.543,5,3,5,6
433.544,4,1,1,3
433.544,1,-3,-1,3
433.545,1,-3,0,4
433.546,3,-3,-2,3
433.546,2,-3,-3,2
433.547,4,0,-1,3
433.547,6,2,0,3
433.548,8,5,2,4
433.548,9,9,8,8
433.549,8,10,10,8
433.55,5,4,3,0
433.55,1,3,0,-2
433.551,0,3,1,-2
433.551,0,5,2,-2
433.552,0,7,6,-1
433.552,0,6,4,-2
433.553,0,5,2,-4
433.554,-1,5,3,-4
433.554,-2,4,3,-2
433.555,-2,2,1,-1
433.555,0,4,4,2
433.556,2,5,4,3
433.556,3,4,3,2
433.557,1,2,1,1
433.558,2,2,2,3
433.558,5,5,7,7
433.559,6,4,5,6
433.559,4,1,0,2
433.56,1,0,0,2
433.561,1,0,0,2
433.561,2,0,0,3
433.562,4,1,1,4
433.562,6,3,2,4
433.563,5,3,0,2
433.563,3,1,0,2
433.564,3,0,0,3
433.565,3,0,0,5
433.565,6,0,0,5
433.566,7,2,0,4
433.566,6,1,0,4
433.567,8,4,3,7
433.567,9,7,6,7
433.568,7,6,6,6
433.569,6,5,5,3
433.569,2,3,2,1
433.57,0,3,3,1
433.57,1,4,5,1
433.571,0,3,1,-3
433.571,-2,2,0,-6
433.572,-2,3,0,-5
433.573,-2,6,3,-2
433.573,0,7,4,-1
433.574,0,7,5,0
433.574,1,6,4,0
433.575,0,4,3,1
433.575,0,2,3,1
433.576,1,1,2,1
433.577,1,3,4,4
433.577,3,3,5,6
433.578,4,4,4,4
433.578,3,1,0,2
433.579,2,0,-1,0
433.579,1,1,0,2
433.58,4,3,2,4
433.581,6,3,2,4
433.581,6,3,1,3
433.582,5,2,1,3
433.582,5,4,2,4
433.583,6,3,2,4
433.583,5,2,2,5
433.584,3,0,-1,3
433.585,2,-3,-2,2
433.585,4,-1,-1,4
433.586,5,0,0,6
433.586,7,1,0,5
433.587,7,2,1,5
433.587,6,3,1,3
433.588,6,4,1,2
433.589,6,7,7,6
433.589,6,7,7,5
433.59,4,4,2,0
433.59,2,4,0,-3
433.591,0,5,0,-4
433.592,0,7,4,-2
433.592,0,7,7,0
433.593,1,9,10,1
433.593,0,7,7,0
433.594,-3,2,4,-1
433.594,-3,0,2,-2
433.595,-4,-1,0,-2
433.596,-3,0,0,-1
433.596,0,0,-2,-1
433.597,2,0,-5,-4
433.597,3,3,-3,-1
433.598,7,8,3,4
433.598,9,11,9,9
433.599,10,9,8,9
433.6,8,6,6,7
433.6,6,3,3,3
433.601,3,1,0,2
433.601,2,0,0,3
433.602,2,0,0,3
433.603,3,1,0,2
433.603,3,0,0,2
433.604,2,0,0,4
433.604,1,-3,-1,4
433.605,4,-1,0,5
433.605,6,0,2,7
433.606,6,0,0,6
433.607,6,1,0,5
433.607,6,1,2,5
433.608,6,3,3,5
433.608,6,7,5,4
433.609,4,5,1,0
433.609,1,2,0,-1
433.61,1,4,1,-1
433.611,2,7,3,0
433.611,2,8,5,0
433.612,3,10,8,0
433.612,2,9,7,0
433.613,0,7,8,1
433.613,0,4,4,-2
433.614,-2,2,1,-4
433.615,-4,0,0,-3
433.615,-3,0,-1,-4
433.616,-2,0,0,-1
433.616,0,2,3,3
433.617,4,5,6,6
433.617,7,6,7,6
433.618,6,6,6,5
433.619,4,3,3,3
433.619,2,1,0,1
433.62,2,0,0,3
433.62,2,1,2,4
433.621,3,2,2,5
433.621,5,1,-1,2
433.622,3,0,-1,2
433.623,4,1,0,1
433.623,4,2,1,4
433.624,5,1,1,5
433.624,6,0,0,6
433.625,6,0,0,5
433.625,7,2,2,6
433.626,6,2,2,6
433.627,7,2,2,6
433.627,6,2,3,6
433.628,6,3,3,3
433.628,4,3,3,1
433.629,2,3,2,1
433.629,2,3,1,0
433.63,1,5,1,-1
433.631,1,5,1,-2
433.631,2,8,4,0
433.632,2,8,5,0
433.632,1,7,4,-1
433.633,0,7,5,0
433.633,0,6,4,-1
433.634,0,4,2,-3
433.635,-2,2,1,-2
433.635,-1,1,1,-1
433.636,0,2,3,0
433.636,1,3,3,2
433.637,1,3,2,1
433.637,1,2,1,0
433.638,2,4,3,3
433.639,4,5,5,5
433.639,6,5,5,5
433.64,6,4,3,5
433.64,5,2,1,3
433.641,4,2,1,4
433.641,4,1,2,3
433.642,4,2,2,4
433.643,4,2,2,4
433.643,3,0,1,3
433.644,1,-1,-1,2
433.644,1,-3,-2,3
433.645,4,-1,-1,5
433.646,7,1,2,8
433.646,6,1,1,6
433.647,7,4,4,7
433.647,8,5,4,7
433.648,6,4,1,1
433.648,2,2,0,0
433.649,2,4,1,0
433.65,3,5,3,1
433.65,4,6,3,0
433.651,2,6,2,-3
433.651,1,7,5,-1
433.652,0,6,5,-1
433.652,0,5,4,-2
433.653,-1,5,3,-2
433.654,-1,3,2,-2
433.654,-1,4,2,-1
433.655,0,3,2,0
433.655,1,4,3,0
433.656,3,5,4,2
433.656,3,4,3,2
433.657,3,4,4,4
433.658,4,3,3,4
433.658,4,2,2,3
433.659,2,1,1,2
433.659,2,0,0,3
433.66,3,1,1,3
433.661,4,2,0,3
433.661,4,1,1,4
433.662,4,2,2,5
433.662,5,3,2,4
433.663,4,1,0,3
433.663,4,2,0,3
433.664,4,0,0,4
433.665,4,-1,-1,4
433.665,4,0,0,5
433.666,6,0,0,6
433.666,6,1,1,6
433.667,7,3,2,5
433.667,6,3,2,5
433.668,5,4,2,3
433.669,4,4,1,1
433.669,3,5,3,2
433.67,3,7,4,0
433.67,2,6,5,0
433.671,1,7,5,0
433.671,0,7,5,-1
433.672,0,6,4,-2
433.673,-1,5,4,-3
433.673,-2,4,3,-3
433.674,-2,3,2,-2
433.674,-1,1,0,-3
433.675,0,2,-1,-3
433.675,1,3,0,0
433.676,3,4,0,0
433.677,4,4,0,0
433.677,5,7,4,5
433.678,9,10,11,11
433.678,8,7,7,7
433.679,4,2,1,3
433.679,1,0,0,1
433.68,1,0,0,3
433.681,2,2,5,6
433.681,3,2,7,9
433.682,3,0,3,4
433.682,2,-1,0,1
433.683,1,-1,-1,0
433.683,0,-2,-2,1
433.684,0,-3,-2,2
433.685,2,-1,-1,6
433.685,7,2,3,8
433.686,8,3,1,7
433.686,8,3,1,6
433.687,7,4,3,5
433.687,6,3,2,5
433.688,6,6,4,5
433.689,6,7,5,3
433.689,3,3,1,0
433.69,0,4,3,0
433.69,2,5,4,0
433.691,2,6,1,-4
433.691,0,4,-1,-7
433.692,-2,5,0,-5
433.693,-1,6,3,-2
433.693,0,7,5,0
433.695,2,8,6,0
433.695,2,7,6,1
433.695,1,3,2,0
433.696,0,2,2,0
433.696,0,2,2,1
433.697,2,3,4,4
433.697,4,5,6,5
433.698,3,3,4,4
433.698,2,1,1,2
433.699,0,0,0,1
433.7,1,0,1,4
433.7,4,1,0,2
433.701,4,1,0,2
433.701,4,1,-2,0
433.702,4,3,0,4
433.702,7,4,3,6
433.703,7,4,3,6
433.704,6,3,3,5
433.704,4,0,0,5
433.705,5,0,0,5
433.705,5,0,0,4
433.706,5,0,-1,3
433.706,6,2,0,4
433.707,7,3,1,4
433.708,6,6,4,5
433.708,6,6,4,3
433.709,4,4,2,0
433.709,1,2,3,1
433.71,2,6,5,1
433.71,2,6,5,0
433.711,0,4,4,-2
433.712,-2,4,3,-2
433.712,-1,5,4,-2
433.713,0,5,4,-3
433.713,-1,5,3,-2
433.714,-1,4,3,0
433.715,-1,3,3,0
433.715,0,2,3,1
433.716,1,3,2,1
433.716,2,2,2,1
433.717,3,3,2,2
433.717,3,3,2,4
433.718,4,3,2,3
433.719,5,3,2,3
433.719,4,3,2,3
433.72,4,2,2,4
433.72,4,2,2,5
433.721,5,2,2,4
433.721,5,2,1,3
433.722,4,1,0,3
433.722,4,0,0,3
433.723,5,1,-1,2
433.724,3,-1,-2,3
433.724,4,-1,-2,3
433.725,4,1,0,5
433.725,5,2,2,6
433.726,6,2,1,5
433.726,8,4,3,6
433.727,8,6,4,5
433.728,6,6,4,3
433.728,3,4,2,1
433.729,2,2,1,0
433.729,1,4,3,1
433.73,3,5,3,0
433.73,3,7,3,-1
433.731,1,7,4,-1
433.732,1,7,4,-2
433.732,1,7,5,-1
433.733,0,6,4,-2
433.733,-1,4,2,-2
433.734,-2,4,3,-1
433.735,-1,3,4,0
433.735,0,2,3,1
433.736,1,3,3,1
433.736,1,2,3,2
433.737,2,2,3,3
433.737,1,1,1,3
433.738,3,2,2,3
433.739,4,3,2,3
433.739,3,1,0,2
433.74,3,1,0,1
433.74,4,0,-2,1
433.741,5,3,-2,1
433.741,7,4,0,3
433.742,7,5,3,6
433.743,7,6,5,7
433.743,6,4,6,8
433.744,5,0,0,5
433.744,4,-2,-2,2
433.745,3,-2,-2,3
433.745,5,0,-1,5
433.746,5,1,1,6
433.747,7,4,3,6
433.747,6,3,4,5
433.748,5,3,2,1
433.748,2,3,2,0
433.749,1,3,3,1
433.75,2,4,3,0
433.75,2,6,3,0
433.751,1,6,4,0
433.751,0,6,4,-1
433.752,0,5,2,-4
433.752,0,6,3,-2
433.753,0,6,4,-1
433.754,0,6,4,-1
433.754,0,3,3,-1
433.755,-1,2,1,0
433.755,0,2,1,0
433.756,2,4,4,3
433.756,3,5,6,5
433.757,4,3,2,1
433.758,2,2,0,1
433.758,3,3,1,2
433.759,4,4,3,4
433.759,4,2,1,3
433.76,4,2,2,4
433.76,4,3,2,4
433.761,5,2,1,3
433.762,5,2,2,4
433.762,4,1,0,3
433.763,3,1,0,3
433.763,4,1,1,5
433.764,4,0,0,4
433.764,4,-1,-1,3
433.765,5,0,0,5
433.766,6,1,0,6
433.766,7,1,1,6
433.767,6,3,3,5
433.767,6,4,4,4
433.768,5,4,3,3
433.768,3,3,3,2
433.769,3,6,4,1
433.77,3,5,3,0
433.77,1,5,2,-2
433.771,1,6,4,-1
433.771,0,7,5,-1
433.772,0,7,5,-1
433.772,0,6,4,-2
433.773,-1,4,3,-2
433.774,-2,3,3,-2
433.774,-2,2,3,0
433.775,0,2,2,0
433.775,0,2,0,0
433.776,2,2,1,1
433.777,2,3,2,2
433.777,4,4,3,4
433.778,5,4,3,4
433.778,5,2,0,0
433.779,5,3,-1,1
433.779,5,4,2,3
433.78,6,5,4,5
433.781,6,4,4,6
433.781,6,4,5,6
433.782,5,4,4,5
433.782,3,1,3,4
433.783,3,1,2,5
433.783,1,-2,1,4
433.784,0,-4,-3,2
433.785,1,-4,-3,3
433.785,4,-2,-2,1
433.786,3,-1,-1,3
433.786,6,2,1,6
433.787,8,5,5,8
433.787,8,6,5,6
433.788,7,6,4,3
433.788,5,5,2,0
433.789,2,4,2,0
433.79,2,6,2,-1
433.79,1,6,2,-2
433.791,1,6,4,-1
433.791,0,7,5,-1
433.792,0,7,4,-2
433.793,0,5,2,-2
433.793,-1,5,4,-1
433.794,0,4,3,-2
433.794,-1,3,2,-1
433.795,0,3,2,0
433.795,1,3,3,2
433.796,3,4,4,3
433.797,3,4,4,4
433.797,4,3,2,3
433.798,3,2,1,2
433.798,3,2,1,2
433.799,3,1,2,2
433.799,3,2,2,3
433.8,4,2,1,4
433.801,3,1,1,3
433.801,4,2,1,3
433.802,5,3,2,4
433.802,5,2,1,3
433.803,4,1,0,3
433.803,3,0,0,3
433.804,3,0,-1,5
433.805,5,0,0,5
433.805,6,1,1,6
433.806,6,1,1,6
433.806,6,3,2,6
433.807,7,4,3,3
433.808,5,3,2,2
433.808,4,3,0,0
433.809,2,4,2,1
433.809,3,5,2,0
433.81,3,7,3,-1
433.81,2,7,4,-1
433.811,2,8,6,0
433.811,1,9,9,1
433.812,1,7,6,-1
433.813,-2,3,3,-3
433.813,-2,2,1,-4
433.814,-3,2,1,-2
433.814,-2,2,2,0
433.815,0,2,2,3
433.816,3,4,4,4
433.816,4,3,3,3
433.817,3,2,2,2
433.817,3,2,1,1
433.818,1,1,1,1
433.818,3,3,3,3
433.819,3,3,3,4
433.82,3,2,2,3
433.82,3,3,3,4
433.821,4,2,1,2
433.821,3,2,0,2
433.822,4,2,1,4
433.822,6,3,2,5
433.823,5,1,0,3
433.824,4,0,0,4
433.824,4,0,0,6
433.825,6,1,1,6
433.825,6,0,1,6
433.826,6,1,0,3
433.827,6,2,0,2
433.827,6,3,0,1
433.828,5,5,2,2
433.828,4,5,5,3
433.829,5,6,5,2
433.829,4,8,6,3
433.83,3,7,4,0
433.831,1,7,5,-1
433.831,0,4,2,-3
433.832,-1,4,0,-6
433.832,-2,4,0,-5
433.833,-1,5,3,-2
433.833,0,5,4,0
433.834,0,4,6,3
433.835,1,5,7,5
433.835,2,2,4,2
433.836,0,1,2,2
433.836,0,0,0,1
433.837,0,0,0,1
433.837,1,0,-1,1
433.838,4,2,0,1
433.838,5,4,2,3
433.839,6,5,3,5
433.84,7,6,3,5
433.84,7,4,4,6
433.841,7,3,3,6
433.841,6,3,2,4
433.842,4,1,0,2
433.843,2,0,0,2
433.843,2,-1,-1,2
433.844,2,-1,-1,3
433.844,4,0,0,5
433.845,4,1,2,6
433.845,5,0,1,6
433.846,6,2,2,6
433.847,6,3,3,4
433.847,5,4,3,4
433.848,4,5,4,3
433.848,2,4,3,2
433.849,4,5,3,2
433.849,3,7,5,0
433.85,2,5,2,-2
433.851,0,5,3,-2
433.851,0,6,3,-2
433.852,0,6,4,-1
433.852,0,6,3,-2
433.853,-1,4,3,-2
433.853,-1,4,2,-1
433.854,0,3,2,0
433.855,0,3,3,1
433.855,2,4,3,1
433.856,2,3,2,1
433.856,1,2,1,2
433.857,3,2,3,3
433.858,4,4,3,4
433.858,5,3,3,4
433.859,4,3,2,3
433.859,4,2,1,4
433.86,4,2,1,3
433.86,4,1,0,3
433.861,4,2,0,3
433.861,4,1,0,2
433.862,3,1,1,3
433.863,4,2,1,4
433.863,5,2,2,6
433.864,5,0,0,5
433.864,5,0,0,5
433.865,4,0,1,6
433.866,5,0,1,6
433.866,5,1,0,4
433.867,5,2,1,3
433.867,6,3,1,2
433.868,4,4,2,2
433.868,4,3,0,0
433.869,2,4,2,0
433.87,2,6,2,-1
433.87,2,7,3,0
433.871,2,9,7,0
433.871,2,9,7,0
433.872,0,7,7,0
433.872,0,4,5,-1
433.873,-1,4,3,-2
433.874,-2,2,2,-2
433.874,-3,0,0,-1
433.875,-1,0,1,0
433.875,0,3,2,1
433.876,2,3,3,3
433.876,4,4,2,3
433.877,5,4,1,1
433.878,3,2,0,1
433.878,4,4,3,4
433.879,5,5,5,6
433.879,5,4,5,5
433.88,4,2,3,3
433.88,2,0,1,4
433.881,2,1,1,3
433.882,3,0,0,2
433.882,3,1,0,3
433.883,4,1,0,2
433.883,3,0,-2,2
433.884,4,0,-2,3
433.884,6,1,1,6
433.885,7,2,2,7
433.886,8,4,3,7
433.886,7,4,2,6
433.887,7,5,5,6
433.887,5,4,4,3
433.888,2,3,3,2
433.888,1,3,2,0
433.889,1,3,1,-1
433.89,0,4,1,-2
433.89,0,5,2,-2
433.891,1,6,2,-4
433.891,0,6,2,-4
433.892,1,8,2,-3
433.893,0,6,2,-4
433.893,0,5,1,-3
433.894,0,5,3,0
433.894,1,6,6,3
433.895,3,6,6,5
433.895,4,5,7,5
433.896,4,3,5,4
433.897,2,2,4,5
433.897,1,1,4,5
433.898,0,0,2,3
433.898,0,-2,0,0
433.899,0,-1,0,0
433.899,0,-1,0,2
433.9,3,1,0,4
433.9,5,3,2,5
433.901,5,3,3,6
433.902,6,4,2,5
433.902,5,3,1,3
433.903,4,1,0,4
433.903,3,-1,-1,3
433.904,4,0,0,5
433.905,5,1,1,6
433.905,6,1,1,6
433.906,6,2,1,5
433.906,6,4,3,5
433.907,6,4,2,4
433.907,5,4,2,2
433.908,4,4,2,1
433.909,3,4,2,0
433.909,2,5,4,0
433.91,2,6,5,0
433.91,0,7,5,-2
433.911,0,6,4,-2
433.911,-1,4,1,-3
433.912,0,5,1,-2
433.913,0,5,1,-3
433.913,0,4,2,-1
433.914,0,4,4,1
433.914,1,4,3,1
433.915,2,3,2,0
433.915,2,3,2,0
433.916,1,4,3,2
433.917,2,3,2,2
433.917,2,3,2,2
433.918,2,3,2,3
433.918,3,3,1,2
433.919,3,3,2,3
433.919,4,2,3,5
433.92,5,2,1,3
433.921,5,3,2,5
433.921,5,3,1,4
433.922,5,2,2,5
433.922,5,3,3,5
433.923,4,0,0,4
433.923,2,-2,-2,3
433.924,3,-2,-3,3
433.925,5,0,-1,3
433.925,5,0,-1,5
433.926,6,3,3,7
433.926,8,5,6,8
433.927,7,6,7,6
433.928,4,3,3,2
433.928,0,1,0,-1
433.929,0,1,1,0
433.929,1,6,4,0
433.93,2,6,4,-1
433.93,0,7,3,-3
433.931,0,8,6,-1
433.932,0,7,5,-1
433.932,0,6,4,-2
433.933,-1,4,4,-1
433.933,0,6,5,0
433.934,0,4,3,1
433.934,0,2,1,0
433.935,0,2,0,0
433.936,1,1,-1,-1
433.936,2,2,0,1
433.937,4,4,3,4
433.937,6,6,4,5
433.938,6,5,3,4
433.938,5,5,4,4
433.939,5,3,3,4
433.94,4,2,1,3
433.94,2,1,1,2
433.941,2,0,1,3
433.941,3,1,1,3
433.942,3,1,1,3
433.942,3,1,2,4
433.943,3,0,0,4
433.944,3,-1,0,5
433.944,5,0,0,6
433.945,6,1,1,7
433.945,7,2,0,4
433.946,6,1,1,5
433.947,6,4,3,5
433.947,5,5,4,4
433.948,5,4,3,2
433.948,4,4,3,0
433.949,2,5,2,0
433.949,2,5,5,0
433.95,2,6,4,0
433.951,1,6,3,-3
433.951,0,5,2,-3
433.952,-1,5,3,-3
433.952,-2,3,3,-3
433.953,-2,4,4,-1
433.953,0,3,2,0
433.954,0,3,2,1
433.954,2,3,1,0
433.955,2,3,2,1
433.956,3,3,1,1
433.956,2,3,1,2
433.957,4,5,3,4
433.957,6,5,3,4
433.958,5,3,2,3
433.959,5,3,2,3
433.959,4,4,4,4
433.96,4,2,3,4
433.96,4,2,2,4
433.961,3,0,0,3
433.961,2,1,0,1
433.962,2,1,0,2
433.963,3,1,0,2
433.963,2,0,0,4
433.964,4,0,0,6
433.964,6,1,0,5
433.965,5,1,1,6
433.965,8,3,3,7
433.966,7,3,3,4
433.967,5,3,3,4
433.967,4,3,2,2
433.968,3,3,2,2
433.968,2,3,3,1
433.969,3,5,4,0
433.969,1,4,1,-3
433.97,0,5,1,-3
433.971,0,8,3,-2
433.971,0,7,3,-2
433.972,0,8,5,-1
433.972,1,7,6,0
433.973,1,7,6,0
433.973,-1,3,3,0
433.974,0,1,2,0
433.975,-1,0,1,0
433.975,0,1,2,1
433.976,1,2,2,2
433.976,2,3,2,2
433.977,3,2,0,1
433.977,4,2,0,1
433.978,5,4,1,3
433.979,6,5,4,5
433.98,5,5,5,6
433.98,6,4,4,5
433.981,5,3,2,4
433.981,5,2,2,3
433.981,3,1,4,5
433.982,3,0,3,5
433.983,2,-2,0,2
433.983,1,-3,-1,3
433.984,2,-2,-2,3
433.984,4,-1,-1,4
433.985,5,0,0,5
433.985,6,3,2,6
433.986,7,5,5,6
433.987,7,6,4,5
433.987,7,6,3,3
433.988,4,4,2,1
433.988,2,4,1,0
433.989,2,4,2,-1
433.99,1,7,4,0
433.99,2,8,5,-1
433.991,0,7,4,-2
433.991,0,6,3,-3
433.992,0,6,2,-3
433.992,-1,5,2,-2
433.993,0,4,1,-2
433.994,0,3,1,-1
433.994,0,3,3,2
433.995,3,5,4,3
433.995,3,4,3,2
433.996,2,3,3,3
433.996,2,2,3,4
433.997,3,3,3,4
433.998,4,3,3,4
433.998,4,2,2,3
433.999,2,1,2,4
433.999,2,1,2,4
434,3,0,0,2
434,4,1,0,1
434.001,4,2,0,1
434.002,5,3,0,2
434.002,5,2,1,3
434.003,5,2,0,4
434.003,5,0,1,6
434.004,5,0,-1,4
434.004,5,1,3,7
434.005,6,3,7,10
434.006,7,2,3,6
434.006,4,0,0,2
434.007,4,1,-1,0
434.007,2,2,-2,-1
434.008,2,3,0,0
434.009,3,6,4,2
434.009,5,9,7,3
434.01,4,8,6,1
434.01,2,7,4,-1
434.011,0,6,2,-4
434.011,0,5,3,-3
434.012,0,5,4,-1
434.013,0,5,3,-2
434.013,0,4,4,-1
434.014,-2,0,1,-1
434.014,-2,0,3,1
434.015,1,3,5,4
434.015,2,2,4,3
434.016,3,2,1,2
434.017,3,2,2,2
434.017,2,2,2,3
434.018,3,3,2,4
434.018,5,4,4,5
434.019,4,2,3,5
434.019,5,2,2,5
434.02,5,1,1,5
434.02,4,0,0,3
434.021,5,1,0,3
434.022,4,2,1,3
434.022,4,2,0,2
434.023,2,0,-1,1
434.023,2,-1,-1,2
434.024,3,0,0,4
434.025,5,1,3,7
434.025,6,3,2,6
434.026,6,4,3,6
434.026,6,4,1,3
434.027,6,5,2,3
434.027,5,6,5,3
434.028,4,6,4,2
434.029,3,4,2,1
434.029,3,5,3,0
434.03,1,5,3,-1
434.03,1,6,3,-2
434.031,0,4,3,-2
434.031,0,6,3,-1
434.032,0,5,2,-2
434.033,0,4,1,-4
434.033,-1,3,0,-2
434.034,0,3,2,0
434.034,1,3,2,1
434.035,2,4,3,2
434.036,2,4,4,3
434.036,3,4,5,4
434.037,4,4,4,3
434.037,3,2,2,2
434.038,2,1,1,2
434.038,3,1,1,2
434.039,3,2,2,3
434.039,4,2,1,3
434.04,4,2,1,4
434.041,5,2,2,5
434.041,6,4,3,4
434.042,5,2,0,2
434.042,4,0,-1,1
434.043,3,0,-1,3
434.043,5,0,1,7
434.044,7,3,4,8
434.045,6,0,1,7
434.045,7,2,3,6
434.046,6,1,1,4
434.046,3,0,0,1
434.047,2,3,2,2
434.047,3,3,3,2
434.048,3,4,3,1
434.049,3,6,5,2
434.049,2,7,6,0
434.05,1,6,4,-1
434.05,0,5,3,-3
434.051,-1,4,3,-3
434.052,0,6,3,-2
434.052,0,4,2,-3
434.053,0,5,2,-1
434.053,0,4,3,-1
434.054,0,4,3,1
434.054,3,5,4,3
434.055,3,4,3,1
434.056,2,3,3,3
434.056,3,2,2,3
434.057,3,3,2,3
434.057,4,3,2,3
434.058,3,1,1,3
434.058,3,1,0,2
434.059,2,2,1,3
434.06,4,1,1,3
434.06,5,2,1,4
434.061,6,4,3,5
434.061,6,3,3,5
434.062,4,2,2,4
434.062,3,0,-1,2
434.063,3,-1,-2,3
434.064,4,-1,-1,3
434.064,4,0,0,5
434.065,6,2,2,8
434.065,8,3,3,7
434.066,7,3,2,4
434.066,5,3,1,3
434.067,4,6,5,3
434.068,3,4,4,2
434.068,4,4,2,0
434.069,3,5,3,0
434.069,1,6,4,-1
434.07,0,7,4,-1
434.07,0,6,3,-3
434.071,0,5,3,-3
434.072,0,5,1,-4
434.072,-1,4,2,-2
434.073,0,3,1,-2
434.073,-1,3,1,0
434.074,1,4,3,2
434.075,3,6,6,4
434.075,4,6,6,4
434.076,3,3,3,2
434.076,1,0,2,2
434.077,1,1,2,3
434.077,4,3,2,2
434.078,2,2,2,3
434.079,3,2,0,2
434.079,3,1,1,3
434.08,4,2,2,4
434.08,4,2,2,5
434.081,5,3,2,4
434.081,3,1,1,4
434.082,5,1,1,4
434.083,4,0,-1,2
434.083,4,-1,-2,3
434.084,5,0,0,5
434.084,6,2,3,8
434.085,6,2,4,8
434.085,7,3,2,5
434.086,5,3,2,5
434.087,5,3,1,3
434.087,4,4,1,1
434.088,3,3,0,-1
434.088,2,3,0,-2
434.089,1,5,1,-1
434.09,1,5,0,-4
434.09,1,8,4,-1
434.091,3,10,8,0
434.091,3,10,7,0
434.092,1,6,5,-2
434.092,0,6,4,-1
434.093,0,4,2,-1
434.094,-1,2,1,-1
434.094,0,2,3,1
434.095,2,4,4,2
434.095,1,1,2,2
434.096,1,1,3,3
434.096,3,2,2,3
434.097,3,2,2,3
434.098,3,1,1,3
434.098,4,2,1,2
434.099,3,1,1,3
434.099,4,3,2,3
434.1,4,2,0,3
434.1,4,2,1,4
434.101,6,3,2,4
434.102,5,2,2,4
434.102,4,1,1,4
434.103,4,0,0,4
434.103,4,0,0,5
434.104,4,0,0,5
434.104,5,1,1,5
434.105,5,1,2,5
434.105,6,2,2,5
434.106,6,4,2,4
434.107,5,5,3,2
434.107,2,3,2,2
434.108,2,5,5,2
434.108,1,5,4,1
434.109,1,4,4,-1
434.11,0,4,2,-3
434.11,0,5,0,-6
434.111,-1,5,0,-6
434.111,0,7,0,-5
434.112,1,7,0,-4
434.112,2,8,3,0
434.113,4,11,8,3
434.114,4,9,13,9
434.114,3,5,11,7
434.115,0,0,5,3
434.115,-1,-3,0,1
434.116,-1,-2,0,0
434.116,0,-2,-1,1
434.117,0,-1,0,2
434.118,2,1,0,3
434.118,3,2,3,4
434.119,4,1,0,2
434.119,3,1,-2,-1
434.12,2,1,-3,0
434.121,4,3,0,2
434.121,8,7,3,4
434.122,9,8,7,7
434.122,8,8,9,10
434.123,6,2,6,10
434.123,4,0,3,9
434.124,4,0,4,8
434.125,4,-2,0,4
434.125,2,-2,-2,2
434.126,1,-3,-4,0
434.126,1,0,-2,0
434.127,2,2,1,1
434.127,4,5,2,1
434.128,3,5,4,2
434.129,5,7,5,2
434.129,5,9,6,1
434.13,4,9,5,-1
434.13,2,8,4,-2
434.131,0,5,3,-2
434.131,0,5,3,-3
434.132,-1,4,2,-3
434.132,0,4,2,-2
434.133,0,4,3,0
434.134,0,3,2,0
434.134,0,3,2,0
434.135,1,3,2,1
434.135,2,4,4,4
434.136,4,4,3,4
434.137,5,4,3,4
434.137,5,3,3,4
434.138,4,2,2,4
434.138,4,2,1,3
434.139,3,0,0,2
434.139,4,0,0,1
434.14,4,2,1,3
434.141,5,4,4,6
434.141,6,4,4,6
434.142,5,3,3,4
434.142,2,0,0,3
434.143,1,-2,-1,4
434.143,3,-2,0,5
434.144,3,-1,0,4
434.145,4,0,0,5
434.145,6,2,0,5
434.146,6,5,4,7
434.146,8,7,6,5
434.147,5,4,2,2
434.147,2,3,0,0
434.148,2,4,1,-1
434.149,3,6,4,0
434.149,1,6,4,0
434.15,1,7,6,0
434.15,1,7,4,0
434.151,1,7,3,-3
434.151,0,5,1,-4
434.152,-2,2,0,-5
434.153,-2,4,3,-2
434.153,0,4,3,0
434.154,2,4,4,1
434.154,2,4,4,2
434.155,2,4,3,1
434.156,1,3,3,2
434.156,2,3,3,3
434.157,4,4,4,4
434.157,3,3,3,4
434.158,2,1,2,3
434.158,3,0,0,2
434.159,3,2,1,3
434.16,5,3,2,5
434.16,5,2,0,2
434.161,4,1,-1,0
434.161,4,2,0,2
434.162,6,4,2,5
434.162,5,1,1,6
434.163,6,1,2,7
434.164,6,1,2,6
434.164,5,0,1,6
434.165,5,0,0,4
434.165,5,1,0,3
434.166,5,2,1,3
434.166,5,3,2,3
434.167,4,4,2,1
434.168,3,5,3,2
434.168,3,5,4,2
434.17,3,6,5,0
434.17,1,5,4,-1
434.17,0,6,4,-1
434.17,-1,5,4,-2
434.171,0,5,3,-2
434.172,0,5,4,-2
434.172,0,5,3,-1
434.173,-1,3,3,-1
434.173,-1,2,2,0
434.174,1,2,3,1
434.174,1,4,5,4
434.175,3,5,5,4
434.176,2,2,3,3
434.176,2,1,3,3
434.177,2,1,0,2
434.177,2,0,0,1
434.178,2,1,0,2
434.178,3,1,0,1
434.179,5,2,-2,0
434.18,6,2,-3,0
434.18,7,6,1,4
434.181,9,9,8,9
434.181,10,8,8,8
434.182,6,3,3,5
434.183,2,-1,0,5
434.183,2,-2,-1,4
434.184,3,-3,-2,2
434.184,1,-3,-2,3
434.185,5,0,0,5
434.185,7,3,3,6
434.186,7,4,4,4
434.187,5,3,2,2
434.187,3,2,1,1
434.188,3,4,2,1
434.188,3,5,3,0
434.189,2,6,4,0
434.189,1,6,4,0
434.19,1,9,6,0
434.191,1,6,5,0
434.191,0,6,3,-4
434.192,-2,2,0,-6
434.192,-2,2,0,-4
434.193,0,4,2,0
434.193,2,5,2,0
434.194,1,4,2,1
434.195,2,4,5,3
434.195,2,3,3,3
434.196,4,5,6,5
434.196,4,4,5,5
434.197,4,2,2,3
434.197,1,0,1,2
434.198,1,0,0,2
434.199,2,0,1,3
434.199,4,3,3,5
434.2,4,2,2,5
434.2,4,2,2,4
434.201,4,2,1,3
434.201,4,2,1,3
434.202,4,0,0,4
434.203,3,-1,-1,3
434.203,4,-1,-1,4
434.204,6,1,0,5
434.204,5,0,0,6
434.205,6,2,2,6
434.206,7,4,3,6
434.206,6,4,3,5
434.207,5,5,3,3
434.207,3,4,3,2
434.208,2,4,2,0
434.208,1,4,1,-1
434.209,1,5,1,-2
434.21,0,6,2,-3
434.21,0,7,3,-2
434.211,0,7,4,-2
434.211,0,7,4,-1
434.212,0,6,3,-2
434.212,0,6,5,0
434.213,0,6,7,2
434.214,0,3,5,2
434.214,0,0,2,2
434.215,1,0,1,1
434.215,0,0,0,0
434.216,1,0,-1,0
434.216,1,1,0,2
434.217,3,2,3,4
434.217,5,3,1,2
434.218,6,4,1,2
434.219,4,4,3,4
434.219,5,4,3,4
434.22,5,3,2,4
434.22,6,4,3,4
434.221,6,4,3,4
434.221,4,2,2,5
434.222,3,-1,0,4
434.223,3,-2,0,5
434.223,5,0,1,8
434.224,7,0,0,6
434.224,6,0,-1,3
434.225,4,0,-1,2
434.226,4,2,0,3
434.226,6,4,2,4
434.227,6,7,4,3
434.227,5,5,2,1
434.228,3,4,4,1
434.228,3,6,4,0
434.229,1,5,3,-1
434.23,0,6,4,-1
434.23,0,5,1,-5
434.231,-1,5,1,-5
434.231,-1,6,1,-4
434.232,0,6,4,-1
434.232,1,7,4,0
434.233,-1,4,4,0
434.234,0,2,2,1
434.234,0,4,6,3
434.235,2,5,8,7
434.235,3,4,8,7
434.236,2,0,3,4
434.236,2,0,2,3
434.237,1,0,1,3
434.238,1,0,0,1
434.238,1,0,0,1
434.239,2,0,-1,2
434.239,4,2,0,2
434.24,5,3,1,3
434.241,5,3,1,4
434.241,6,3,1,4
434.242,7,3,0,3
434.242,5,1,-2,3
434.243,6,1,0,4
434.243,6,1,0,5
434.244,6,2,2,6
434.245,8,4,4,8
434.245,9,5,3,6
434.246,6,4,2,3
434.246,3,3,0,0
434.247,1,1,0,0
434.247,2,3,1,1
434.248,3,5,4,1
434.249,3,7,4,0
434.249,1,7,4,-1
434.25,1,6,4,-2
434.25,0,6,4,-1
434.251,0,7,4,-2
434.251,0,5,4,-2
434.252,0,5,3,-2
434.253,-2,3,4,0
434.253,0,2,2,0
434.254,0,1,0,0
434.254,1,1,0,-1
434.255,0,1,0,0
434.255,3,3,3,4
434.256,5,6,5,6
434.257,7,9,10,9
434.257,6,7,11,11
434.258,4,1,3,4
434.258,0,-2,0,1
434.259,0,-3,-2,0
434.259,1,-2,-4,0
434.26,2,0,-3,0
434.261,4,1,0,3
434.261,6,5,3,6
434.262,8,5,4,7
434.262,6,1,0,5
434.263,5,0,0,4
434.263,4,0,0,4
434.264,4,0,1,6
434.265,6,2,3,6
434.265,7,4,4,6
434.266,6,4,2,3
434.266,4,4,1,1
434.267,3,4,0,0
434.267,2,4,0,0
434.268,2,7,3,0
434.269,4,9,7,1
434.269,2,8,7,0
434.27,1,8,7,0
434.27,0,6,5,-1
434.271,-2,3,1,-4
434.272,-3,1,-1,-7
434.272,-3,0,-1,-5
434.273,-1,2,2,0
434.273,1,5,5,3
434.274,4,6,6,4
434.274,4,6,6,5
434.275,4,5,6,5
434.276,4,3,3,3
434.276,1,-1,-2,-1
434.277,0,0,-1,0
434.277,3,2,1,3
434.278,4,2,1,2
434.278,4,2,0,3
434.279,5,3,0,3
434.28,6,3,-1,1
434.28,6,4,-1,1
434.281,6,5,0,4
434.281,8,6,4,6
434.282,7,3,4,7
434.283,5,1,3,8
434.283,6,0,2,8
434.284,4,-1,2,6
434.284,2,-2,1,5
434.285,2,-1,1,5
434.285,1,0,1,4
434.286,2,0,0,1
434.286,2,1,0,0
434.287,2,3,1,0
434.288,4,5,3,1
434.288,4,7,4,0
434.289,4,9,5,0
434.289,3,8,4,-2
434.29,0,6,3,-2
434.29,0,7,3,-2
434.291,-1,5,3,-2
434.292,0,6,4,-1
434.292,0,6,4,-1
434.293,0,3,3,0
434.293,1,3,2,0
434.294,0,2,2,1
434.294,1,2,3,2
434.295,2,3,4,4
434.296,4,3,3,3
434.296,3,3,3,2
434.297,2,1,0,1
434.297,2,0,0,1
434.298,3,2,1,3
434.299,5,3,1,4
434.299,6,2,1,3
434.3,5,4,3,6
434.3,6,5,7,9
434.301,7,5,6,7
434.301,4,1,1,3
434.302,0,-4,-4,0
434.302,0,-5,-4,2
434.303,3,-1,-1,3
434.304,4,1,0,5
434.304,7,2,1,6
434.305,8,4,3,6
434.305,7,4,3,6
434.306,6,4,4,3
434.306,4,3,4,3
434.307,3,5,4,2
434.308,2,4,3,0
434.308,3,6,4,0
434.309,2,5,2,-3
434.309,0,5,2,-3
434.31,-1,6,4,-2
434.31,0,6,3,-2
434.311,0,5,2,-4
434.312,-1,4,1,-2
434.312,1,5,2,0
434.313,2,4,2,1
434.313,2,3,0,0
434.314,3,3,1,1
434.315,1,2,1,1
434.315,2,4,3,2
434.316,3,5,9,8
434.316,4,6,9,8
434.317,3,2,4,3
434.317,0,0,-1,0
434.318,0,-1,-2,-1
434.319,0,0,0,2
434.319,2,2,1,5
434.32,6,4,2,5
434.32,8,5,3,6
434.321,8,5,3,5
434.322,5,2,0,3
434.322,3,-1,-1,3
434.323,4,0,0,4
434.323,5,0,-1,5
434.324,5,0,0,6
434.324,6,1,0,5
434.325,6,2,1,5
434.326,7,4,3,4
434.326,6,5,2,2
434.327,4,4,3,1
434.327,2,4,1,0
434.328,1,5,3,0
434.328,3,7,5,1
434.329,2,8,5,0
434.329,0,5,4,-2
434.33,0,5,2,-4
434.331,-2,4,2,-3
434.331,-1,4,3,-3
434.332,-1,5,2,-1
434.332,0,4,2,-1
434.333,0,2,0,-1
434.333,1,3,2,0
434.334,3,5,4,4
434.335,4,5,5,5
434.335,4,4,4,5
434.336,4,3,3,4
434.336,3,1,0,1
434.337,2,1,-1,0
434.338,2,1,0,0
434.338,3,1,0,2
434.339,5,3,0,4
434.339,6,6,7,9
434.34,8,7,10,10
434.34,6,2,3,4
434.341,3,0,0,2
434.342,0,-1,-1,2
434.342,0,-3,-2,2
434.343,2,-3,-2,3
434.343,3,0,0,5
434.344,6,0,-1,4
434.344,6,1,0,5
434.345,8,5,1,4
434.346,7,4,1,2
434.346,5,6,2,3
434.347,6,7,5,5
434.347,7,8,5,3
434.348,4,6,3,0
434.348,1,5,3,-2
434.349,0,6,4,-1
434.35,0,7,5,-1
434.35,0,6,4,-2
434.351,-1,4,2,-4
434.351,-3,3,2,-3
434.352,-2,4,3,0
434.352,0,5,4,0
434.353,1,4,4,1
434.354,1,3,2,0
434.354,0,1,1,0
434.355,0,1,2,3
434.355,2,3,4,5
434.356,4,3,3,4
434.356,3,1,1,2
434.357,3,2,1,2
434.358,3,2,0,3
434.358,5,3,1,3
434.359,6,4,3,5
434.359,6,4,2,4
434.36,4,2,1,3
434.361,4,3,3,4
434.361,4,2,2,4
434.362,3,0,0,3
434.362,3,-2,-1,3
434.363,3,0,0,5
434.363,4,0,2,7
434.364,5,0,2,7
434.365,7,3,3,7
434.365,7,2,0,2
434.366,4,2,0,1
434.366,3,3,1,1
434.367,3,4,1,1
434.367,3,3,1,0
434.368,3,6,4,0
434.368,2,7,4,0
