Program Time [s],data 0
73.3807,72
73.3848,73
73.3848,45
73.389,10
73.389,-13
73.389,-28
73.393,-34
73.393,-36
73.3972,-34
73.3972,-45
73.3972,-25
73.4012,16
73.4012,47
73.4053,75
73.4053,64
73.4053,33
73.4094,0
73.4094,-20
73.4095,-26
73.4135,-30
73.4135,-34
73.4176,-48
73.4176,-45
73.4177,-16
73.4217,30
73.4217,62
73.4258,76
73.4258,55
73.4258,23
73.43,-8
73.43,-26
73.43,-31
73.434,-32
73.434,-35
73.4381,-50
73.4381,-35
73.4381,7
73.4422,44
73.4422,70
73.4463,71
73.4463,45
73.4463,7
73.4504,-18
73.4504,-33
73.4545,-38
73.4545,-36
73.4545,-32
73.4586,-41
73.4586,-20
73.4586,24
73.4626,55
73.4626,75
73.4668,59
73.4668,30
73.4668,-6
73.4709,-25
73.4709,-31
73.475,-33
73.475,-33
73.475,-43
73.4791,-41
73.4791,-7
73.4791,34
73.4831,63
73.4831,74
73.4872,50
73.4872,17
73.4873,-12
73.4913,-27
73.4913,-30
73.4954,-31
73.4955,-33
73.4955,-48
73.4995,-29
73.4995,13
73.4995,46
73.5036,71
73.5036,63
73.5077,35
73.5077,-2
73.5077,-22
73.5118,-28
73.5118,-28
73.516,-29
73.516,-36
73.516,-44
73.52,-20
73.52,29
73.5241,59
73.5241,74
73.5241,54
73.5282,25
73.5282,-5
73.5282,-25
73.5323,-32
73.5323,-36
73.5364,-36
73.5364,-50
73.5364,-39
73.5405,3
73.5405,44
73.5446,70
73.5446,69
73.5446,47
73.5487,14
73.5487,-13
73.5487,-28
73.5528,-33
73.5528,-34
73.5569,-36
73.5569,-49
73.5569,-28
73.561,17
73.561,54
73.5651,77
73.5651,66
73.5651,36
73.5692,-1
73.5692,-25
73.5732,-33
73.5732,-37
73.5732,-37
73.5774,-44
73.5774,-42
73.5774,-7
73.5814,37
73.5814,66
73.5855,73
73.5855,50
73.5856,18
73.5896,-9
73.5897,-23
73.5937,-30
73.5937,-33
73.5938,-34
73.5978,-48
73.5978,-36
73.5978,7
73.6019,46
73.6019,71
73.606,67
73.606,40
73.606,4
73.6101,-20
73.6101,-29
73.6142,-33
73.6142,-33
73.6142,-32
73.6183,-43
73.6183,-22
73.6183,19
73.6224,52
73.6224,76
73.6265,63
73.6265,32
73.6265,-3
73.6306,-25
73.6306,-32
73.6347,-33
73.6347,-34
73.6347,-44
73.6388,-43
73.6388,-9
73.6388,35
73.6428,64
73.6429,73
73.647,53
73.647,20
73.647,-10
73.6511,-25
73.6511,-30
73.6552,-32
73.6552,-32
73.6552,-47
73.6593,-33
73.6593,9
73.6593,44
73.6633,71
73.6633,67
73.6674,39
73.6674,3
73.6674,-18
73.6715,-27
73.6716,-31
73.6757,-33
73.6757,-39
73.6757,-46
73.6797,-20
73.6798,25
73.6838,55
73.6838,75
73.6838,59
73.688,27
73.688,-7
73.688,-23
73.692,-28
73.692,-30
73.6962,-35
73.6962,-48
73.6962,-42
73.7002,-5
73.7002,42
73.7043,69
73.7043,76
73.7043,51
73.7084,14
73.7084,-19
73.7084,-33
73.7125,-35
73.7125,-35
73.7166,-30
73.7166,-44
73.7166,-25
73.7207,18
73.7207,49
73.7248,70
73.7248,60
73.7248,33
73.7289,1
73.7289,-18
73.7289,-28
73.733,-32
73.733,-34
73.7371,-43
73.7371,-44
73.7371,-15
73.7412,27
73.7412,59
73.7453,77
73.7453,58
73.7453,23
73.7494,-8
73.7494,-26
73.7535,-32
73.7535,-33
73.7535,-34
73.7576,-47
73.7576,-35
73.7576,4
73.7616,43
73.7617,70
73.7657,69
73.7658,44
73.7658,7
73.7698,-18
73.7699,-28
73.774,-32
73.774,-30
73.774,-29
73.778,-44
73.7781,-25
73.7781,17
73.7821,50
73.7821,73
73.7862,63
73.7862,30
73.7862,-6
73.7903,-25
73.7903,-29
73.7944,-31
73.7944,-33
73.7945,-43
73.7985,-41
73.7985,-7
73.7985,35
73.8026,62
73.8026,72
73.8067,53
73.8067,20
73.8067,-11
73.8108,-25
73.8108,-31
73.815,-34
73.815,-35
73.815,-49
73.819,-33
73.819,9
73.8231,45
73.8231,72
73.8231,68
73.8272,40
73.8272,3
73.8272,-20
73.8313,-28
73.8313,-31
73.8354,-30
73.8354,-36
73.8354,-46
73.8395,-20
73.8395,23
73.8436,55
73.8436,73
73.8436,58
73.8477,29
73.8477,-5
73.8477,-25
73.8517,-31
73.8518,-32
73.8559,-32
73.8559,-45
73.8559,-40
73.86,-5
73.86,37
73.864,67
73.864,73
73.864,49
73.8681,13
73.8681,-12
73.8722,-26
73.8722,-29
73.8723,-32
73.8763,-34
73.8763,-48
73.8764,-28
73.8804,14
73.8804,49
73.8845,73
73.8845,66
73.8845,35
73.8886,-1
73.8886,-22
73.8927,-28
73.8927,-33
73.8927,-34
73.8969,-41
73.8969,-43
73.8969,-14
73.9009,31
73.9009,61
73.905,74
73.905,54
73.905,22
73.9091,-9
73.9091,-24
73.9132,-30
73.9132,-33
73.9132,-34
73.9173,-46
73.9173,-36
73.9173,3
73.9214,42
73.9214,69
73.9255,70
73.9255,44
73.9255,7
73.9296,-16
73.9296,-27
73.9337,-30
73.9337,-32
73.9337,-34
73.9378,-47
73.9378,-25
73.9378,19
73.9419,52
73.9419,75
73.946,63
73.946,31
73.946,-5
73.95,-26
73.9501,-30
73.9542,-31
73.9542,-32
73.9542,-43
73.9582,-41
73.9582,-9
73.9623,34
73.9623,62
73.9623,72
73.9664,52
73.9664,19
73.9665,-11
73.9705,-26
73.9705,-30
73.9746,-31
73.9747,-34
73.9747,-48
73.9787,-34
73.9787,8
73.9828,43
73.9828,71
73.9828,68
73.987,39
73.987,6
73.987,-18
73.991,-27
73.991,-29
73.9952,-29
73.9952,-39
73.9952,-49
73.9992,-23
73.9992,24
74.0033,54
74.0033,73
74.0033,60
74.0074,31
74.0074,-5
74.0074,-25
74.0115,-30
74.0115,-32
74.0156,-33
74.0156,-44
74.0156,-37
74.0197,-2
74.0197,39
74.0238,63
74.0238,66
74.0238,45
74.0279,19
74.0279,-8
74.032,-26
74.032,-32
74.032,-33
74.0361,-34
74.0361,-48
74.0361,-30
74.0401,12
74.0401,47
74.0443,73
74.0443,65
74.0443,35
74.0484,0
74.0484,-20
74.0524,-27
74.0524,-31
74.0524,-34
74.0566,-41
74.0566,-43
74.0566,-15
74.0606,30
74.0606,59
74.0647,73
74.0647,56
74.0648,23
74.0688,-9
74.0688,-25
74.073,-28
74.073,-32
74.073,-35
74.077,-47
74.077,-36
74.0771,2
74.0811,40
74.0811,66
74.0852,70
74.0852,45
74.0852,11
74.0893,-16
74.0893,-28
74.0934,-31
74.0934,-32
74.0934,-33
74.0975,-47
74.0975,-25
74.1016,18
74.1016,51
74.1016,73
74.1057,62
74.1057,31
74.1057,-3
74.1098,-22
74.1098,-29
74.1139,-32
74.1139,-33
74.1139,-43
74.118,-41
74.118,-9
74.1221,35
74.1221,64
74.1221,72
74.1262,51
74.1262,19
74.1262,-10
74.1303,-27
74.1303,-31
74.1344,-32
74.1344,-33
74.1344,-46
74.1384,-33
74.1385,7
74.1425,44
74.1425,71
74.1426,67
74.1466,39
74.1466,4
74.1467,-17
74.1507,-28
74.1507,-32
74.1549,-34
74.1549,-37
74.1549,-45
74.159,-21
74.159,24
74.163,57
74.163,75
74.163,59
74.1671,29
74.1672,-7
74.1712,-26
74.1712,-31
74.1712,-33
74.1753,-34
74.1753,-45
74.1754,-39
74.1794,-3
74.1794,38
74.1835,65
74.1835,74
74.1835,51
74.1876,15
74.1876,-12
74.1917,-27
74.1917,-31
74.1917,-31
74.1958,-34
74.1958,-51
74.1958,-30
74.1999,14
74.1999,49
74.204,75
74.204,67
74.204,35
74.2081,0
74.2081,-21
74.2122,-29
74.2122,-32
74.2122,-35
74.2163,-42
74.2163,-43
74.2204,-15
74.2204,29
74.2204,60
74.2245,76
74.2245,58
74.2245,25
74.2286,-10
74.2286,-28
74.2327,-33
74.2327,-33
74.2327,-34
74.2368,-49
74.2368,-38
74.2408,4
74.2408,45
74.2408,74
74.245,75
74.245,46
74.245,7
74.249,-19
74.249,-28
74.2532,-33
74.2532,-35
74.2532,-36
74.2572,-49
74.2572,-27
74.2613,21
74.2613,54
74.2613,76
74.2654,63
74.2655,32
74.2655,-1
74.2695,-22
74.2695,-30
74.2736,-34
74.2737,-36
74.2737,-46
74.2777,-44
74.2777,-10
74.2818,34
74.2818,67
74.2818,78
74.286,55
74.286,19
74.29,-12
74.29,-29
74.29,-33
74.2941,-33
74.2941,-35
74.2941,-50
74.2982,-37
74.2982,7
74.3023,46
74.3023,78
74.3023,75
74.3064,43
74.3064,4
74.3105,-19
74.3105,-29
74.3105,-33
74.3146,-35
74.3146,-44
74.3146,-53
74.3187,-26
74.3187,24
74.3228,61
74.3228,84
74.3228,68
74.3269,33
74.3269,-6
74.331,-27
74.331,-34
74.331,-36
74.3351,-37
74.3351,-51
74.3351,-46
74.3392,-6
74.3392,40
74.3432,74
74.3433,82
74.3433,58
74.3473,19
74.3473,-13
74.3514,-33
74.3515,-39
74.3515,-38
74.3556,-38
74.3556,-54
74.3596,-33
74.3596,14
74.3597,52
74.3637,83
74.3637,77
74.3637,43
74.3678,2
74.3678,-22
74.372,-33
74.372,-39
74.372,-40
74.376,-49
74.376,-55
74.3801,-22
74.3801,32
74.3801,70
74.3842,90
74.3842,68
74.3842,32
74.3883,-9
74.3883,-33
74.3924,-37
74.3924,-36
74.3924,-37
74.3965,-54
74.3965,-50
74.4006,-7
74.4006,38
74.4006,79
74.4047,92
74.4047,63
74.4047,18
74.4088,-16
74.4088,-31
74.4129,-33
74.4129,-37
74.4129,-43
74.417,-65
74.417,-40
74.4211,15
74.4211,53
74.4211,91
74.4252,80
74.4252,45
74.4252,7
74.4292,-25
74.4293,-41
74.4334,-48
74.4334,-46
74.4334,-49
74.4374,-44
74.4374,-14
74.4415,22
74.4415,67
74.4415,95
74.4456,85
74.4456,33
74.4497,-21
74.4498,-38
74.4498,-31
74.4539,-41
74.4539,-53
74.4539,-64
74.458,-32
74.458,19
74.462,54
74.462,80
74.462,77
74.4661,39
74.4661,9
74.4702,-13
74.4702,-17
74.4702,-18
74.4743,-41
74.4743,-67
74.4743,-65
74.4784,-48
74.4784,-10
74.4825,51
74.4825,120
74.4825,93
74.4866,52
74.4866,23
74.4907,-17
74.4907,-44
74.4907,-65
74.4948,-41
74.4948,-37
74.4989,-37
74.4989,23
74.4989,24
74.503,24
74.503,24
74.503,6
74.507,5
74.507,10
74.5112,49
74.5112,36
74.5112,-20
74.5153,-48
74.5153,-77
74.5193,-49
74.5193,-14
74.5194,62
74.5235,77
74.5235,70
74.5235,28
74.5275,-7
74.5275,7
74.5317,27
74.5317,28
74.5317,-19
74.5357,-86
74.5357,-214
74.5398,-155
74.5399,5
74.5399,102
74.544,181
74.544,158
74.548,95
74.548,48
74.548,-20
74.5522,-64
74.5522,-111
74.5522,-181
74.5562,-61
74.5562,55
74.5603,41
74.5603,39
74.5603,51
74.5644,56
74.5644,53
74.5685,59
74.5685,20
74.5685,-36
74.5726,6
74.5726,1
74.5726,-72
74.5767,-167
74.5767,-170
74.5808,-28
74.5808,119
74.5808,144
74.5849,141
74.5849,124
74.589,25
74.589,-27
74.589,-70
74.5931,-112
74.5931,-63
74.5972,-56
74.5972,-93
74.5972,7
74.6013,144
74.6013,184
74.6013,55
74.6054,-46
74.6054,-112
74.6095,-65
74.6095,19
74.6095,18
74.6135,18
74.6135,19
74.6177,-27
74.6177,-33
74.6177,-37
74.6217,17
74.6217,42
74.6258,57
74.6259,52
74.6259,21
74.63,0
74.63,-4
74.63,-17
74.634,-26
74.634,-48
74.6381,-60
74.6382,-57
74.6382,17
74.6422,67
74.6422,82
74.6463,41
74.6463,52
74.6463,28
74.6505,-44
74.6505,-102
74.6505,-21
74.6545,11
74.6545,-2
74.6587,-74
74.6587,-68
74.6587,-27
74.6627,62
74.6627,141
74.6668,136
74.6668,67
74.6669,-46
74.671,-51
74.671,-36
74.675,-61
74.675,-85
74.675,-51
74.6791,15
74.6791,49
74.6791,48
74.6832,54
74.6832,92
74.6873,46
74.6873,-7
74.6873,-53
74.6914,-53
74.6914,-33
74.6955,-43
74.6955,-50
74.6955,-23
74.6996,8
74.6996,56
74.6996,60
74.7036,24
74.7036,37
74.7078,55
74.7078,39
74.7078,-42
74.7119,-111
74.7119,-78
74.716,-21
74.716,2
74.716,12
74.7201,37
74.7201,74
74.7201,91
74.7241,76
74.7241,47
74.7283,-66
74.7283,-111
74.7283,-48
74.7323,3
74.7323,0
74.7365,-31
74.7365,-61
74.7365,-14
74.7405,73
74.7405,61
74.7405,35
74.7446,13
74.7446,12
74.7487,20
74.7487,10
74.7487,34
74.7528,17
74.7528,-123
74.757,-147
74.757,-92
74.757,4
74.761,94
74.761,131
74.7651,110
74.7651,72
74.7651,5
74.7692,-25
74.7692,-33
74.7692,-33
74.7733,-44
74.7733,-66
74.7774,-55
74.7774,-4
74.7774,12
74.7815,34
74.7815,16
74.7856,46
74.7856,71
74.7856,30
74.7897,8
74.7897,-28
74.7897,-51
74.7938,-15
74.7938,-40
74.7979,-55
74.7979,-16
74.7979,33
74.802,67
74.802,85
74.8061,59
74.8061,16
74.8061,-2
74.8102,-47
74.8102,-51
74.8142,-35
74.8143,-26
74.8143,-45
74.8183,-29
74.8183,4
74.8183,48
74.8224,91
74.8224,70
74.8265,21
74.8266,-22
74.8266,-15
74.8307,-9
74.8307,-14
74.8347,-24
74.8347,-42
74.8348,-70
74.8388,-56
74.8388,3
74.8388,77
74.843,124
74.843,131
74.847,77
74.8471,-132
74.8471,-102
74.8511,-23
74.8511,-21
74.8552,-52
74.8552,-44
74.8552,-18
74.8593,22
74.8593,63
74.8634,101
74.8634,117
74.8634,71
74.8675,0
74.8675,-28
74.8675,-37
74.8716,-55
74.8716,-74
74.8757,-72
74.8757,-64
74.8757,-24
74.8798,29
74.8798,78
74.8839,116
74.8839,80
74.8839,18
74.888,-16
74.888,-52
74.8921,-51
74.8921,-79
74.8921,-17
74.8962,-70
74.8962,-35
74.8962,44
74.9002,86
74.9002,80
74.9043,78
74.9043,53
74.9044,8
74.9085,-23
74.9085,-33
74.9125,-40
74.9125,-37
74.9125,-16
74.9167,-52
74.9167,-43
74.9167,0
74.9207,39
74.9207,75
74.9249,74
74.9249,46
74.9249,23
74.929,4
74.929,-30
74.933,-73
74.933,-56
74.933,-28
74.9371,-133
74.9371,-50
74.9372,74
74.9412,107
74.9412,100
74.9453,77
74.9453,50
74.9453,5
74.9494,-24
74.9494,-37
74.9535,-46
74.9535,-53
74.9535,-69
74.9576,-57
74.9576,-5
74.9576,49
74.9617,88
74.9617,92
74.9658,58
74.9658,14
74.9658,-20
74.9699,-38
74.9699,-45
74.974,-45
74.974,-44
74.974,-65
74.9781,-36
74.9781,28
74.9822,70
74.9822,100
74.9822,84
74.9863,40
74.9863,-7
74.9863,-35
74.9904,-44
74.9904,-45
74.9945,-43
74.9945,-50
74.9945,-44
74.9985,-4
74.9986,46
75.0026,78
75.0026,88
75.0027,57
75.0068,15
75.0068,-19
75.0068,-38
75.0108,-39
75.0108,-34
75.015,-33
75.015,-57
75.015,-39
75.019,11
75.019,52
75.0231,84
75.0231,80
75.0232,45
75.0272,5
75.0273,-20
75.0313,-30
75.0313,-34
75.0313,-39
75.0354,-47
75.0354,-62
75.0354,-32
75.0395,23
75.0395,65
75.0436,93
75.0436,79
75.0436,41
75.0477,-3
75.0477,-29
75.0518,-40
75.0518,-45
75.0518,-45
75.056,-59
75.056,-55
75.056,-8
75.06,51
75.06,89
75.0641,91
75.0641,64
75.0641,20
75.0682,-21
75.0682,-36
75.0723,-40
75.0723,-46
75.0723,-46
75.0764,-58
75.0764,-34
75.0764,20
75.0805,59
75.0805,94
75.0846,84
75.0846,43
75.0846,-4
75.0887,-31
75.0887,-40
75.0928,-41
75.0928,-41
75.0928,-47
75.0969,-51
75.0969,-19
75.101,33
75.101,71
75.101,91
75.1051,69
75.1051,29
75.1051,-12
75.1091,-31
75.1091,-35
75.1133,-39
75.1133,-42
75.1133,-60
75.1173,-50
75.1173,0
75.1214,48
75.1214,86
75.1214,91
75.1255,60
75.1255,16
75.1256,-17
75.1296,-34
75.1296,-41
75.1338,-44
75.1338,-46
75.1338,-64
75.1378,-37
75.1378,21
75.142,65
75.142,98
75.142,85
75.146,43
75.146,-5
75.146,-33
75.1501,-40
75.1501,-45
75.1542,-44
75.1542,-53
75.1542,-52
75.1583,-14
75.1583,41
75.1624,80
75.1624,96
75.1624,69
75.1665,27
75.1665,-13
75.1706,-34
75.1706,-41
75.1706,-43
75.1747,-43
75.1747,-60
75.1747,-44
75.1787,8
75.1787,55
75.1829,90
75.1829,88
75.1829,52
75.187,5
75.187,-25
75.1911,-36
75.1911,-40
75.1911,-41
75.1952,-47
75.1952,-61
75.1952,-29
75.1992,26
75.1992,67
75.2033,94
75.2033,78
75.2034,39
75.2075,-7
75.2075,-31
75.2115,-37
75.2115,-40
75.2116,-43
75.2156,-59
75.2157,-54
75.2157,-9
75.2197,43
75.2197,80
75.2238,93
75.2238,67
75.2238,23
75.228,-14
75.228,-34
75.232,-39
75.232,-43
75.2321,-45
75.2361,-65
75.2361,-44
75.2402,12
75.2402,59
75.2402,97
75.2443,91
75.2443,51
75.2443,3
75.2484,-27
75.2484,-39
75.2525,-44
75.2525,-46
75.2525,-52
75.2566,-60
75.2566,-25
75.2607,34
75.2607,77
75.2607,99
75.2648,77
75.2648,35
75.2648,-11
75.2689,-35
75.2689,-41
75.273,-43
75.273,-46
75.273,-63
75.277,-52
75.277,0
75.2812,51
75.2812,90
75.2812,96
75.2853,62
75.2853,14
75.2853,-20
75.2893,-36
75.2893,-41
75.2935,-41
75.2935,-45
75.2935,-65
75.2975,-39
75.2975,17
75.3017,63
75.3017,97
75.3017,88
75.3057,47
75.3057,-1
75.3098,-29
75.3098,-40
75.3098,-45
75.314,-47
75.314,-59
75.314,-58
75.318,-19
75.318,40
75.3222,83
75.3222,101
75.3222,75
75.3262,29
75.3262,-14
75.3303,-35
75.3303,-42
75.3303,-46
75.3344,-47
75.3344,-67
75.3344,-48
75.3385,8
75.3385,59
75.3426,98
75.3426,95
75.3426,56
75.3467,6
75.3467,-26
75.3508,-39
75.3508,-44
75.3508,-46
75.3549,-51
75.3549,-65
75.359,-32
75.359,29
75.359,75
75.3631,103
75.3631,84
75.3631,41
75.3672,-8
75.3672,-35
75.3713,-42
75.3713,-46
75.3713,-46
75.3754,-63
75.3754,-57
75.3794,-6
75.3794,51
75.3794,91
75.3836,100
75.3836,67
75.3836,19
75.3876,-18
75.3876,-37
75.3918,-42
75.3918,-44
75.3918,-47
75.3958,-69
75.3958,-45
75.4,16
75.4,64
75.4,104
75.404,94
75.404,49
75.4081,-2
75.4081,-32
75.4082,-42
75.4122,-46
75.4122,-48
75.4122,-60
75.4163,-62
75.4163,-20
75.4204,41
75.4204,87
75.4204,104
75.4245,76
75.4245,30
75.4286,-13
75.4286,-37
75.4286,-45
75.4327,-48
75.4327,-48
75.4327,-68
75.4368,-48
75.4368,9
75.4409,60
75.4409,99
75.4409,97
75.445,59
75.445,7
75.4491,-26
75.4491,-42
75.4491,-47
75.4532,-48
75.4532,-52
75.4532,-65
75.4573,-32
75.4573,32
75.4614,77
75.4614,106
75.4614,84
75.4654,38
75.4654,-8
75.4696,-34
75.4696,-45
75.4696,-49
75.4737,-49
75.4737,-63
75.4777,-54
75.4778,-4
75.4778,53
75.4819,92
75.4819,100
75.4819,66
75.486,19
75.486,-19
75.4901,-39
75.4901,-45
75.4901,-45
75.4941,-47
75.4941,-68
75.4982,-41
75.4982,20
75.4983,66
75.5023,103
75.5024,93
75.5064,49
75.5064,-2
75.5064,-32
75.5105,-45
75.5105,-48
75.5106,-48
75.5146,-56
75.5146,-59
75.5187,-20
75.5187,43
75.5187,88
75.5228,105
75.5228,76
75.527,27
75.527,-16
75.527,-39
75.531,-46
75.531,-48
75.531,-49
75.5351,-68
75.5351,-47
75.5392,11
75.5392,63
75.5392,102
75.5433,99
75.5433,55
75.5474,2
75.5474,-28
75.5474,-43
75.5515,-48
75.5515,-49
75.5556,-52
75.5556,-62
75.5556,-26
75.5597,36
75.5597,79
75.5597,104
75.5637,82
75.5637,37
75.5679,-12
75.5679,-39
75.5679,-47
75.572,-49
75.572,-49
75.576,-65
75.576,-53
75.576,2
75.5802,59
75.5802,97
75.5802,100
75.5842,63
75.5842,14
75.5884,-22
75.5884,-42
75.5884,-48
75.5924,-51
75.5924,-50
75.5965,-64
75.5965,-33
75.5965,27
75.6006,72
75.6006,107
75.6047,90
75.6047,41
75.6047,-8
75.6088,-36
75.6089,-47
75.6089,-49
75.6129,-50
75.6129,-60
75.617,-55
75.617,-9
75.617,52
75.6211,91
75.6211,105
75.6253,74
75.6253,22
75.6253,-20
75.6293,-43
75.6293,-49
75.6293,-52
75.6334,-50
75.6334,-66
75.6375,-42
75.6375,18
75.6375,69
75.6416,104
75.6416,97
75.6457,52
75.6457,0
75.6457,-33
75.6498,-47
75.6498,-51
75.6539,-50
75.6539,-55
75.6539,-62
75.658,-21
75.658,43
75.658,85
75.662,108
75.662,81
75.6662,33
75.6662,-16
75.6662,-42
75.6703,-49
75.6703,-51
75.6744,-51
75.6744,-65
75.6744,-52
75.6785,5
75.6785,63
75.6825,100
75.6825,104
75.6825,63
75.6866,10
75.6867,-25
75.6867,-44
75.6907,-51
75.6907,-52
75.6948,-51
75.6948,-66
75.6949,-32
75.699,33
75.699,78
75.703,110
75.703,90
75.703,41
75.7071,-10
75.7071,-39
75.7072,-49
75.7112,-54
75.7112,-55
75.7153,-65
75.7153,-56
75.7153,-4
75.7194,59
75.7194,98
75.7235,108
75.7235,72
75.7235,19
75.7276,-23
75.7276,-45
75.7317,-51
75.7317,-53
75.7317,-53
75.7358,-69
75.7358,-39
75.7358,23
75.7399,74
75.7399,112
75.744,100
75.744,51
75.744,-4
75.7481,-36
75.7481,-49
75.7522,-54
75.7522,-55
75.7522,-61
75.7563,-62
75.7563,-17
75.7563,49
75.7603,93
75.7603,113
75.7645,82
75.7645,31
75.7645,-18
75.7685,-45
75.7686,-51
75.7727,-54
75.7727,-55
75.7727,-72
75.7767,-52
75.7767,11
75.7808,68
75.7809,110
75.7809,111
75.785,67
75.785,9
75.785,-29
75.789,-47
75.789,-54
75.7931,-56
75.7932,-62
75.7932,-75
75.7972,-36
75.7972,34
75.8013,87
75.8013,120
75.8013,99
75.8054,49
75.8054,-7
75.8095,-39
75.8095,-51
75.8095,-58
75.8136,-60
75.8136,-76
75.8136,-66
75.8177,-8
75.8177,59
75.8218,105
75.8218,118
75.8218,83
75.8259,26
75.8259,-19
75.83,-45
75.83,-54
75.83,-58
75.8341,-60
75.8341,-80
75.8341,-48
75.8382,21
75.8382,76
75.8423,119
75.8423,109
75.8423,59
75.8463,0
75.8464,-35
75.8505,-49
75.8505,-58
75.8505,-61
75.8546,-72
75.8546,-69
75.8586,-21
75.8587,50
75.8587,100
75.8628,121
75.8628,90
75.8628,33
75.8668,-18
75.8669,-44
75.871,-53
75.871,-57
75.871,-57
75.875,-79
75.875,-54
75.8791,14
75.8792,71
75.8792,116
75.8832,112
75.8832,65
75.8873,5
75.8873,-32
75.8873,-48
75.8915,-55
75.8915,-58
75.8915,-67
75.8955,-75
75.8955,-32
75.8996,40
75.8996,92
75.8996,123
75.9037,96
75.9037,46
75.9078,-10
75.9078,-42
75.9079,-52
75.912,-59
75.912,-61
75.912,-80
75.916,-64
75.916,1
75.9201,65
75.9201,112
75.9201,120
75.9242,77
75.9242,17
75.9283,-25
75.9283,-46
75.9283,-55
75.9324,-58
75.9324,-62
75.9365,-80
75.9365,-43
75.9365,30
75.9406,83
75.9406,122
75.9446,106
75.9446,54
75.9447,-6
75.9488,-39
75.9488,-52
75.9488,-58
75.9529,-62
75.9529,-77
75.957,-68
75.957,-12
75.957,59
75.961,108
75.9611,122
75.9651,85
75.9651,27
75.9651,-20
75.9693,-45
75.9693,-56
75.9693,-58
75.9733,-60
75.9733,-82
75.9774,-50
75.9774,21
75.9774,79
75.9815,123
75.9815,111
75.9856,60
75.9856,0
75.9856,-36
75.9897,-51
75.9897,-58
75.9938,-61
75.9938,-73
75.9938,-72
75.998,-22
75.998,49
75.998,101
76.002,124
76.002,92
76.0061,35
76.0061,-17
76.0061,-44
76.0102,-54
76.0102,-58
76.0143,-60
76.0143,-82
76.0143,-56
76.0184,13
76.0184,73
76.0225,119
76.0225,115
76.0225,67
76.0266,6
76.0266,-32
76.0266,-49
76.0307,-56
76.0307,-60
76.0348,-69
76.0348,-76
76.0348,-32
76.0388,41
76.0388,95
76.043,125
76.043,99
76.043,44
76.0471,-12
76.0471,-44
76.0471,-54
76.0511,-60
76.0511,-61
76.0553,-80
76.0553,-64
76.0553,2
76.0593,67
76.0593,113
76.0634,120
76.0634,77
76.0635,17
76.0676,-25
76.0676,-46
76.0716,-56
76.0716,-58
76.0716,-62
76.0757,-81
76.0758,-44
76.0758,30
76.0798,85
76.0798,124
76.084,105
76.084,53
76.084,-6
76.088,-40
76.088,-51
76.0921,-59
76.0921,-61
76.0921,-77
76.0963,-69
76.0963,-12
76.0963,58
76.1003,108
76.1003,121
76.1044,84
76.1044,26
76.1044,-19
76.1085,-45
76.1085,-54
76.1126,-58
76.1126,-61
76.1126,-82
76.1167,-49
76.1167,22
76.1208,79
76.1208,122
76.1208,111
76.1249,59
76.1249,-1
76.129,-37
76.129,-51
76.129,-60
76.1331,-62
76.1331,-74
76.1331,-70
76.1371,-20
76.1371,52
76.1413,103
76.1413,124
76.1413,90
76.1453,33
76.1454,-16
76.1495,-44
76.1495,-55
76.1495,-59
76.1536,-61
76.1536,-82
76.1536,-54
76.1576,15
76.1576,73
76.1618,119
76.1618,115
76.1618,66
76.1658,5
76.1658,-32
76.17,-49
76.17,-58
76.17,-60
76.174,-69
76.1741,-75
76.1781,-31
76.1781,43
76.1781,95
76.1822,122
76.1822,96
76.1822,44
76.1863,-11
76.1863,-42
76.1904,-53
76.1904,-59
76.1904,-62
76.1945,-81
76.1945,-62
76.1986,4
76.1986,68
76.1986,114
76.2028,119
76.2028,75
76.2068,15
76.2068,-26
76.2068,-47
76.2109,-56
76.2109,-58
76.2109,-62
76.215,-80
76.215,-42
76.2191,31
76.2191,86
76.2191,123
76.2232,104
76.2232,53
76.2273,-6
76.2273,-40
76.2273,-53
76.2314,-60
76.2314,-62
76.2314,-77
76.2354,-69
76.2355,-11
76.2396,59
76.2396,109
76.2396,122
76.2436,84
76.2436,25
76.2478,-20
76.2478,-45
76.2478,-55
76.2518,-59
76.2519,-61
76.256,-81
76.256,-48
76.256,22
76.26,79
76.26,123
76.2641,109
76.2641,59
76.2641,-2
76.2682,-37
76.2682,-51
76.2683,-59
76.2723,-60
76.2723,-74
76.2764,-70
76.2764,-19
76.2764,53
76.2805,104
76.2805,123
76.2846,88
76.2846,31
76.2846,-17
76.2887,-43
76.2887,-54
76.2887,-59
76.2928,-60
76.2928,-81
76.297,-53
76.297,15
76.297,74
76.301,121
76.301,112
76.3051,63
76.3051,4
76.3051,-33
76.3092,-50
76.3092,-57
76.3133,-60
76.3133,-70
76.3133,-73
76.3174,-28
76.3174,45
76.3174,98
76.3214,123
76.3214,95
76.3256,40
76.3256,-14
76.3256,-43
76.3297,-54
76.3297,-59
76.3338,-62
76.3338,-80
76.3338,-62
76.3379,5
76.3379,69
76.342,115
76.342,118
76.342,75
76.3461,14
76.3461,-27
76.3461,-48
76.3502,-56
76.3502,-58
76.3543,-63
76.3543,-80
76.3543,-40
76.3583,33
76.3583,86
76.3624,123
76.3624,103
76.3625,52
76.3665,-8
76.3665,-41
76.3665,-52
76.3706,-59
76.3706,-62
76.3747,-78
76.3748,-68
76.3748,-6
76.3788,62
76.3788,109
76.383,121
76.383,83
76.383,24
76.387,-21
76.387,-45
76.3911,-55
76.3911,-59
76.3911,-60
76.3952,-81
76.3952,-48
76.3952,23
76.3993,79
76.3993,122
76.4034,110
76.4034,59
76.4034,-2
76.4075,-38
76.4075,-52
76.4116,-59
76.4116,-62
76.4116,-75
76.4157,-70
76.4157,-18
76.4198,54
76.4198,105
76.4198,123
76.4239,88
76.4239,29
76.4239,-18
76.428,-43
76.428,-53
76.4321,-59
76.4321,-60
76.4321,-81
76.4361,-53
76.4361,17
76.4403,74
76.4403,120
76.4403,114
76.4443,64
76.4444,5
76.4484,-34
76.4484,-50
76.4484,-58
76.4525,-61
76.4526,-71
76.4526,-75
76.4566,-27
76.4566,46
76.4607,97
76.4607,123
76.4607,94
76.4648,42
76.4648,-13
76.469,-44
76.469,-53
76.469,-59
76.473,-61
76.473,-81
76.473,-62
76.4771,4
76.4771,68
76.4812,114
76.4812,118
76.4812,75
76.4853,15
76.4853,-26
76.4894,-46
76.4894,-56
76.4894,-58
76.4935,-62
76.4935,-80
76.4976,-43
76.4976,30
76.4976,87
76.5017,124
76.5017,103
76.5017,53
76.5058,-8
76.5058,-42
76.5099,-53
76.5099,-59
76.5099,-61
76.514,-76
76.514,-67
76.5181,-8
76.5181,60
76.5181,108
76.5222,120
76.5222,83
76.5263,26
76.5263,-20
76.5263,-44
76.5304,-55
76.5304,-58
76.5304,-59
76.5344,-81
76.5344,-50
76.5386,20
76.5386,78
76.5386,123
76.5426,111
76.5426,59
76.5467,-1
76.5468,-37
76.5468,-51
76.5508,-58
76.5508,-61
76.5509,-73
76.555,-71
76.555,-21
76.559,52
76.5591,103
76.5591,122
76.5631,89
76.5631,33
76.5672,-17
76.5672,-44
76.5672,-53
76.5713,-58
76.5713,-60
76.5754,-80
76.5754,-55
76.5754,14
76.5795,72
76.5795,119
76.5836,114
76.5836,66
76.5836,5
76.5877,-33
76.5877,-50
76.5877,-57
76.5918,-61
76.5918,-70
76.5959,-74
76.5959,-29
76.5959,44
76.6,96
76.6,123
76.6041,96
76.6041,43
76.6041,-12
76.6082,-43
76.6082,-55
76.6082,-60
76.6123,-60
76.6123,-79
76.6164,-62
76.6164,3
76.6164,68
76.6205,113
76.6205,118
76.6246,75
76.6246,16
76.6246,-27
76.6287,-48
76.6287,-56
76.6328,-58
76.6328,-62
76.6328,-79
76.6368,-41
76.6368,33
76.6368,85
76.641,121
76.641,104
76.645,50
76.6451,-7
76.6451,-40
76.6491,-51
76.6492,-57
76.6532,-61
76.6533,-76
76.6533,-67
76.6573,-10
76.6573,59
76.6614,107
76.6614,121
76.6614,83
76.6655,25
76.6655,-20
76.6655,-45
76.6696,-54
76.6696,-58
76.6737,-61
76.6738,-82
76.6738,-48
76.6778,23
76.6778,79
76.6819,121
76.6819,109
76.6819,58
76.686,-1
76.686,-37
76.6861,-50
76.6901,-58
76.6901,-60
76.6942,-75
76.6942,-72
76.6942,-20
76.6983,53
76.6983,105
76.7024,124
76.7024,89
76.7024,32
76.7065,-17
76.7065,-44
76.7106,-54
76.7106,-58
76.7106,-60
76.7147,-81
76.7147,-55
76.7147,15
76.7187,74
76.7188,120
76.7228,114
76.7229,64
76.7229,4
76.727,-34
76.727,-49
76.7311,-56
76.7311,-60
76.7311,-70
76.7351,-73
76.7352,-28
76.7392,45
76.7392,97
76.7392,123
76.7433,94
76.7433,39
76.7433,-13
76.7474,-42
76.7474,-53
76.7515,-59
76.7516,-61
76.7516,-80
76.7556,-61
76.7556,5
76.7597,68
76.7597,114
76.7597,118
76.7638,74
76.7638,14
76.7679,-27
76.7679,-48
76.7679,-57
76.772,-59
76.772,-64
76.772,-78
76.7761,-38
76.7761,33
76.7802,87
76.7802,122
76.7802,102
76.7843,51
76.7843,-8
76.7884,-41
76.7884,-53
76.7884,-58
76.7925,-60
76.7925,-78
76.7925,-68
76.7965,-7
76.7965,60
76.8007,108
76.8007,120
76.8007,83
76.8047,24
76.8047,-20
76.8089,-44
76.8089,-56
76.8089,-59
76.813,-60
76.813,-80
76.817,-48
76.817,23
76.8171,79
76.8212,123
76.8212,110
76.8212,58
76.8252,-3
76.8252,-39
76.8294,-52
76.8294,-59
76.8294,-60
76.8334,-75
76.8335,-71
76.8375,-17
76.8375,55
76.8375,104
76.8416,123
76.8417,87
76.8457,30
76.8457,-17
76.8457,-44
76.8498,-53
76.8498,-58
76.8499,-60
76.8539,-81
76.8539,-54
76.858,15
76.858,74
76.858,119
76.8621,113
76.8621,64
76.8662,4
76.8662,-33
76.8662,-49
76.8703,-57
76.8703,-60
76.8744,-70
76.8744,-73
76.8744,-27
76.8785,45
76.8785,96
76.8785,123
76.8826,95
76.8826,42
76.8867,-12
76.8867,-43
76.8867,-53
76.8908,-59
76.8908,-61
76.8949,-79
76.8949,-62
76.8949,3
76.899,67
76.899,113
76.899,118
76.903,75
76.9031,15
76.9072,-26
76.9072,-47
76.9072,-56
76.9112,-58
76.9113,-62
76.9154,-80
76.9154,-41
76.9154,33
76.9194,86
76.9194,122
76.9235,102
76.9236,52
76.9236,-7
76.9276,-40
76.9277,-52
76.9277,-59
76.9317,-61
76.9317,-78
76.9358,-69
76.9358,-8
76.9358,61
76.94,109
76.94,121
76.944,83
76.944,25
76.9441,-19
76.9482,-45
76.9482,-55
76.9522,-58
76.9522,-60
76.9522,-81
76.9563,-49
76.9563,22
76.9563,79
76.9604,123
76.9604,110
76.9645,58
76.9645,-1
76.9645,-38
76.9686,-51
76.9686,-60
76.9727,-60
76.9727,-73
76.9727,-70
76.9768,-18
76.9768,53
76.9809,102
76.9809,121
76.9809,88
76.985,33
76.985,-16
76.985,-45
76.9891,-54
76.9891,-58
76.9932,-59
76.9932,-80
76.9932,-54
76.9973,15
76.9973,74
77.0014,119
77.0014,113
77.0014,65
77.0055,6
77.0055,-34
77.0055,-51
77.0095,-59
77.0096,-59
77.0137,-68
77.0137,-74
77.0137,-29
77.0177,44
77.0177,95
77.0219,123
77.0219,96
77.0219,42
77.026,-13
77.026,-42
77.03,-54
77.0301,-58
77.0301,-60
77.0341,-78
77.0341,-63
77.0341,3
77.0382,67
77.0382,113
77.0423,118
77.0423,75
77.0423,16
77.0464,-25
77.0464,-46
77.0505,-55
77.0505,-57
77.0505,-62
77.0546,-79
77.0546,-41
77.0546,32
77.0587,85
77.0587,122
77.0628,102
77.0628,51
77.0628,-8
77.0669,-41
77.0669,-51
77.071,-57
77.071,-60
77.071,-76
77.0751,-68
77.0751,-10
77.0792,59
77.0792,108
77.0792,121
77.0833,83
77.0833,24
77.0833,-20
77.0874,-44
77.0874,-54
77.0915,-57
77.0915,-60
77.0915,-80
77.0955,-47
77.0956,23
77.0997,78
77.0997,120
77.0997,109
77.1038,57
77.1038,-3
77.1078,-38
77.1079,-49
77.1079,-58
77.112,-61
77.112,-74
77.112,-69
77.116,-17
77.116,54
77.1201,103
77.1201,121
77.1202,88
77.1242,31
77.1242,-17
77.1283,-44
77.1283,-54
77.1284,-57
77.1324,-60
77.1324,-81
77.1365,-52
77.1365,15
77.1365,74
77.1406,118
77.1406,111
77.1406,63
77.1447,3
77.1447,-34
77.1488,-49
77.1488,-57
77.1488,-59
77.1529,-70
77.1529,-73
77.157,-27
77.157,45
77.157,97
77.1611,123
77.1611,93
77.1652,39
77.1652,-14
77.1652,-42
77.1693,-53
77.1693,-58
77.1693,-61
77.1734,-80
77.1734,-61
77.1775,4
77.1775,67
77.1775,114
77.1816,117
77.1816,74
77.1857,14
77.1857,-27
77.1857,-47
77.1898,-55
77.1898,-58
77.1898,-63
77.1938,-79
77.1938,-40
77.198,33
77.198,88
77.198,122
77.202,101
77.202,48
77.2062,-11
77.2062,-40
77.2062,-51
77.2102,-58
77.2103,-59
77.2143,-78
77.2143,-66
77.2143,-5
77.2184,62
77.2185,111
77.2225,118
77.2225,79
77.2225,20
77.2266,-21
77.2266,-44
77.2266,-54
77.2307,-57
77.2307,-60
77.2348,-81
77.2348,-45
77.2348,27
77.239,81
77.239,121
77.243,107
77.243,55
77.243,-4
77.2471,-39
77.2471,-52
77.2471,-58
77.2512,-61
77.2512,-75
77.2553,-69
77.2553,-15
77.2553,56
77.2594,105
77.2594,121
77.2635,85
77.2635,29
77.2635,-19
77.2676,-44
77.2676,-54
77.2717,-57
77.2717,-58
77.2717,-80
77.2758,-52
77.2758,17
77.2758,74
77.2799,119
77.2799,111
77.284,61
77.284,1
77.284,-35
77.2881,-49
77.2881,-57
77.2922,-59
77.2922,-71
77.2922,-71
77.2963,-24
77.2963,46
77.3003,97
77.3003,122
77.3004,93
77.3045,37
77.3045,-15
77.3045,-44
77.3085,-53
77.3085,-57
77.3126,-59
77.3127,-80
77.3127,-57
77.3167,9
77.3167,70
77.3208,115
77.3208,115
77.3208,69
77.325,9
77.325,-29
77.325,-46
77.329,-56
77.329,-58
77.3332,-63
77.3332,-78
77.3332,-37
77.3372,36
77.3372,89
77.3413,122
77.3413,101
77.3413,48
77.3454,-9
77.3454,-41
77.3495,-52
77.3495,-59
77.3495,-61
77.3536,-78
77.3536,-66
77.3536,-4
77.3577,62
77.3577,109
77.3618,119
77.3618,80
77.3618,20
77.3659,-22
77.3659,-45
77.37,-54
77.37,-57
77.37,-59
77.3741,-80
77.3741,-46
77.3781,26
77.3781,80
77.3781,121
77.3823,106
77.3823,55
77.3823,-4
77.3863,-39
77.3863,-51
77.3905,-58
77.3905,-60
77.3905,-76
77.3945,-70
77.3945,-15
77.3986,56
77.3987,107
77.3987,121
77.4027,85
77.4027,27
77.4069,-18
77.4069,-44
77.4069,-53
77.411,-56
77.411,-59
77.411,-82
77.415,-51
77.415,20
77.4192,76
77.4192,120
77.4192,110
77.4232,60
77.4232,0
77.4273,-36
77.4274,-50
77.4274,-57
77.4314,-59
77.4314,-71
77.4314,-71
77.4355,-22
77.4355,49
77.4396,100
77.4396,121
77.4396,90
77.4437,34
77.4437,-16
77.4478,-44
77.4478,-53
77.4478,-57
77.4519,-59
77.4519,-80
77.456,-57
77.456,12
77.456,71
77.4601,117
77.4601,114
77.4642,67
77.4642,7
77.4642,-31
77.4683,-48
77.4683,-56
77.4683,-58
77.4724,-67
77.4724,-75
77.4765,-32
77.4765,40
77.4765,92
77.4806,122
77.4806,96
77.4847,44
77.4847,-12
77.4847,-41
77.4888,-52
77.4888,-58
77.4888,-60
77.4929,-80
77.4929,-64
77.497,1
77.497,66
77.497,112
77.501,118
77.501,77
77.5051,18
77.5051,-24
77.5052,-46
77.5092,-54
77.5092,-56
77.5133,-61
77.5133,-80
77.5133,-44
77.5174,29
77.5174,83
77.5174,122
77.5215,104
77.5215,53
77.5256,-5
77.5256,-39
77.5256,-51
77.5297,-58
77.5297,-60
77.5338,-75
77.5338,-68
77.5338,-11
77.5379,58
77.5379,106
77.542,120
77.542,83
77.542,25
77.5461,-21
77.5461,-44
77.5461,-53
77.5502,-58
77.5502,-59
77.5543,-80
77.5543,-49
77.5543,21
77.5584,76
77.5584,120
77.5625,110
77.5625,60
77.5625,0
77.5666,-36
77.5666,-51
77.5666,-57
77.5706,-60
77.5706,-72
77.5748,-70
77.5748,-21
77.5748,50
77.5788,100
77.5789,122
77.583,89
77.583,32
77.583,-17
77.5871,-43
77.5871,-52
77.5911,-57
77.5911,-59
77.5911,-80
77.5952,-55
77.5953,13
77.5953,72
77.5993,119
77.5993,113
77.6034,64
77.6035,4
77.6035,-33
77.6075,-48
77.6075,-55
77.6116,-58
77.6116,-68
77.6116,-73
77.6157,-29
77.6157,43
77.6198,95
77.6198,122
77.6198,94
77.624,42
77.624,-13
77.624,-42
77.628,-52
77.628,-58
77.6321,-60
77.6321,-80
77.6321,-61
77.6362,4
77.6362,67
77.6403,113
77.6403,116
77.6403,73
77.6444,15
77.6444,-26
77.6485,-47
77.6485,-56
77.6485,-58
77.6526,-63
77.6526,-77
77.6526,-39
77.6566,33
77.6566,86
77.6608,121
77.6608,102
77.6608,50
77.6648,-8
77.6649,-41
77.669,-52
77.669,-58
77.669,-59
77.6731,-76
77.6731,-66
77.6731,-6
77.6771,60
77.6771,108
77.6813,119
77.6813,81
77.6813,22
77.6853,-23
77.6853,-45
77.6895,-53
77.6895,-57
77.6895,-59
77.6935,-80
77.6936,-46
77.6976,24
77.6976,79
77.6976,121
77.7018,109
77.7018,57
77.7018,-2
77.7058,-38
77.7058,-52
77.71,-58
77.71,-60
77.71,-74
77.714,-69
77.714,-17
77.7181,54
77.7181,103
77.7181,121
77.7222,86
77.7222,30
77.7263,-18
77.7263,-43
77.7263,-53
77.7304,-57
77.7304,-58
77.7304,-80
77.7345,-53
77.7345,16
77.7386,75
77.7386,119
77.7386,110
77.7427,62
77.7427,3
77.7468,-34
77.7468,-49
77.7468,-56
77.7509,-60
77.7509,-71
77.755,-71
77.755,-25
77.755,46
77.7591,97
77.7591,122
77.7591,92
77.7631,38
77.7632,-14
77.7673,-44
77.7673,-53
77.7673,-58
77.7713,-60
77.7713,-80
77.7754,-60
77.7755,7
77.7755,69
77.7795,115
77.7795,116
77.7836,71
77.7836,11
77.7836,-28
77.7878,-46
77.7878,-55
77.7878,-59
77.7918,-65
77.7918,-77
77.796,-36
77.796,36
77.796,89
77.8,122
77.8,99
77.8041,47
77.8041,-10
77.8041,-42
77.8082,-52
77.8083,-57
77.8123,-60
77.8123,-77
77.8123,-66
77.8164,-4
77.8164,62
77.8164,110
77.8205,119
77.8205,78
77.8246,19
77.8246,-22
77.8246,-45
77.8287,-55
77.8287,-56
77.8328,-59
77.8328,-80
77.8328,-45
77.8369,27
77.8369,82
77.841,121
77.841,105
77.841,54
77.8451,-5
77.8451,-38
77.8451,-51
77.862,-57
77.862,-60
77.862,-75
77.862,-68
77.862,-14
77.862,56
77.862,106
77.862,120
77.8621,85
77.8621,27
77.8656,-20
77.8656,-46
77.8656,-55
77.8697,-56
77.8697,-57
77.8738,-80
77.8738,-50
77.8738,20
77.8778,77
77.8779,120
77.882,109
77.882,59
77.882,0
77.8861,-35
77.8861,-50
77.8902,-58
77.8902,-60
77.8902,-71
77.8942,-71
77.8943,-23
77.8943,50
77.8983,100
77.8983,122
77.9024,90
77.9024,34
77.9024,-16
77.9065,-44
77.9065,-54
77.9106,-57
77.9106,-58
77.9106,-79
77.9147,-56
77.9147,11
77.9188,71
77.9188,118
77.9188,115
77.9229,67
77.9229,7
77.9229,-32
77.927,-49
77.927,-55
77.9311,-56
77.9311,-66
77.9311,-75
77.9352,-32
77.9352,39
77.9393,91
77.9393,122
77.9393,97
77.9434,45
77.9434,-11
77.9434,-41
77.9475,-52
77.9475,-59
77.9516,-60
77.9516,-78
77.9516,-63
77.9556,-1
77.9556,63
77.9598,111
77.9598,117
77.9598,76
77.9638,17
77.9638,-24
77.968,-45
77.968,-54
77.968,-56
77.9721,-60
77.9721,-79
77.9721,-42
77.9761,30
77.9761,83
77.9802,121
77.9802,102
77.9803,52
77.9843,-6
77.9843,-40
77.9884,-51
77.9885,-57
77.9885,-60
77.9925,-75
77.9925,-67
77.9966,-10
77.9966,58
77.9966,107
78.0007,118
78.0007,81
78.0007,24
78.0048,-20
78.0048,-43
78.009,-54
78.009,-56
78.009,-59
78.013,-81
78.013,-48
78.0171,21
78.0171,78
78.0171,120
78.0212,109
78.0212,58
78.0253,-1
78.0253,-37
78.0253,-50
78.0294,-57
78.0294,-59
78.0294,-73
78.0335,-69
78.0335,-19
78.0376,51
78.0376,101
78.0376,120
78.0416,87
78.0416,30
78.0458,-20
78.0458,-45
78.0458,-51
78.0499,-54
78.0499,-57
78.054,-79
78.054,-53
78.054,15
78.0581,73
78.0581,118
78.0581,110
78.0621,63
78.0621,3
78.0663,-34
78.0663,-50
78.0663,-57
78.0703,-59
78.0704,-69
78.0744,-72
78.0744,-27
78.0744,45
78.0785,97
78.0786,122
78.0826,93
78.0826,41
78.0826,-13
78.0867,-44
78.0868,-53
78.0868,-58
78.0908,-60
78.0908,-79
78.095,-60
78.095,6
78.095,69
78.099,114
78.099,115
78.1031,71
78.1031,12
78.1031,-28
78.1072,-47
78.1072,-55
78.1072,-57
78.1113,-63
78.1113,-76
78.1154,-37
78.1154,34
78.1154,87
78.1195,120
78.1195,100
78.1236,49
78.1236,-9
78.1236,-41
78.1278,-51
78.1278,-57
78.1318,-59
78.1318,-78
78.1318,-65
78.1359,-4
78.1359,62
78.1359,108
78.14,118
78.14,80
78.1441,21
78.1441,-23
78.1441,-47
78.1481,-54
78.1482,-55
78.1523,-58
78.1523,-80
78.1523,-46
78.1563,25
78.1563,81
78.1604,121
78.1605,105
78.1605,55
78.1646,-4
78.1646,-39
78.1646,-51
78.1686,-57
78.1686,-60
78.1727,-75
78.1727,-68
78.1728,-14
78.1768,56
78.1768,105
78.181,119
78.181,84
78.181,29
78.185,-17
78.185,-43
78.1891,-54
78.1891,-57
78.1891,-60
78.1932,-82
78.1932,-51
78.1932,20
78.1973,76
78.1973,119
78.2014,109
78.2014,61
78.2014,1
78.2055,-35
78.2055,-49
78.2096,-57
78.2096,-59
78.2096,-71
78.2137,-71
78.2137,-23
78.2137,48
78.2178,98
78.2178,121
78.2219,89
78.2219,36
78.222,-15
78.226,-44
78.226,-52
78.2301,-57
78.2301,-58
78.2301,-79
78.2342,-57
78.2342,10
78.2383,70
78.2383,117
78.2383,114
78.2424,68
78.2424,7
78.2424,-31
78.2465,-48
78.2465,-55
78.2506,-59
78.2506,-66
78.2506,-75
78.2546,-33
78.2546,38
78.2587,91
78.2588,122
78.2588,97
78.2628,46
78.2628,-11
78.267,-41
78.267,-52
78.267,-58
78.271,-60
78.271,-79
78.2711,-65
78.2751,-1
78.2751,64
78.2792,110
78.2793,117
78.2793,77
78.2833,18
78.2833,-23
78.2875,-43
78.2875,-54
78.2875,-57
78.2915,-61
78.2915,-81
78.2956,-45
78.2956,28
78.2956,83
78.2997,122
78.2997,104
78.2998,53
78.3038,-4
78.3038,-39
78.3079,-52
78.3079,-59
78.3079,-61
78.312,-76
78.312,-67
78.3161,-10
78.3161,57
78.3161,106
78.3202,118
78.3202,83
78.3243,26
78.3243,-19
78.3243,-43
78.3284,-53
78.3284,-57
78.3284,-59
78.3325,-81
78.3325,-48
78.3366,22
78.3366,77
78.3366,120
78.3407,108
78.3407,58
78.3448,-1
78.3448,-37
78.3448,-50
78.3489,-57
78.3489,-60
78.353,-73
78.353,-70
78.353,-19
78.357,52
78.357,101
78.3571,121
78.3611,88
78.3611,31
78.3652,-16
78.3653,-43
78.3653,-53
78.3694,-57
78.3694,-58
78.3734,-79
78.3734,-54
78.3734,13
78.3775,73
78.3775,118
78.3816,112
78.3816,63
78.3816,5
78.3857,-32
78.3857,-48
78.3857,-55
78.3898,-59
78.3898,-69
78.394,-75
78.394,-29
78.394,42
78.398,94
78.398,122
78.4021,94
78.4021,43
78.4021,-12
78.4062,-42
78.4062,-53
78.4062,-58
78.4104,-60
78.4104,-80
78.4144,-62
78.4144,4
78.4144,67
78.4185,112
78.4185,115
78.4226,73
78.4226,15
78.4226,-25
78.4267,-46
78.4267,-55
78.4308,-58
78.4308,-63
78.4308,-77
78.4349,-39
78.4349,32
78.4349,85
78.439,121
78.439,101
78.4431,51
78.4431,-8
78.4431,-41
78.4471,-51
78.4472,-58
78.4512,-59
78.4512,-77
78.4512,-67
78.4553,-7
78.4554,61
78.4594,107
78.4594,118
78.4594,82
78.4636,24
78.4636,-20
78.4636,-44
78.4676,-53
78.4676,-57
78.4717,-59
78.4718,-80
78.4718,-48
78.4758,22
78.4758,77
78.48,120
78.48,106
78.48,56
78.484,-1
78.484,-37
78.484,-49
78.4881,-57
78.4881,-59
78.4922,-72
78.4922,-70
78.4922,-18
78.4963,52
78.4963,102
78.5004,119
78.5004,86
78.5004,30
78.5045,-18
78.5046,-44
78.5086,-51
78.5086,-56
78.5086,-59
78.5127,-80
78.5127,-51
78.5127,17
78.5168,74
78.5168,119
78.5209,110
78.5209,61
78.5209,1
78.525,-35
78.525,-48
78.5291,-55
78.5291,-58
78.5291,-70
78.5332,-72
78.5332,-25
78.5372,47
78.5373,99
78.5373,121
78.5413,91
78.5414,37
78.5414,-14
78.5454,-43
78.5454,-52
78.5495,-58
78.5496,-59
78.5496,-79
78.5536,-59
78.5536,7
78.5577,69
78.5578,114
78.5578,115
78.5618,70
78.5618,11
78.566,-29
78.566,-47
78.566,-55
78.5701,-57
78.5701,-64
78.5701,-76
78.5741,-36
78.5741,35
78.5782,87
78.5782,120
78.5782,99
78.5823,48
78.5823,-7
78.5864,-40
78.5864,-51
78.5864,-58
78.5905,-60
78.5905,-76
78.5905,-66
78.5946,-8
78.5946,59
78.5988,108
78.5988,119
78.5988,82
78.6028,24
78.6028,-21
78.6069,-44
78.6069,-52
78.6069,-56
78.611,-58
78.611,-80
78.615,-48
78.615,21
78.6151,77
78.6192,120
78.6192,107
78.6192,57
78.6233,-2
78.6233,-36
78.6274,-49
78.6274,-57
78.6274,-59
78.6314,-75
78.6314,-70
78.6355,-17
78.6356,52
78.6356,102
78.6396,120
78.6396,87
78.6437,31
78.6438,-17
78.6438,-42
78.6479,-53
78.6479,-56
78.6479,-58
78.652,-80
78.652,-53
78.656,16
78.6561,73
78.6561,118
78.6601,110
78.6601,62
78.6642,3
78.6642,-33
78.6642,-49
78.6683,-56
78.6683,-60
78.6724,-70
78.6724,-72
78.6724,-26
78.6765,47
78.6765,98
78.6766,120
78.6806,90
78.6806,37
78.6847,-14
78.6847,-42
78.6847,-51
78.6888,-57
78.6888,-60
78.693,-81
78.693,-59
78.693,9
78.697,70
78.697,114
78.7011,115
78.7011,70
78.7011,10
78.7052,-28
78.7052,-47
78.7052,-55
78.7093,-58
78.7093,-65
78.7134,-76
78.7134,-35
78.7134,36
78.7174,88
78.7175,120
78.7215,99
78.7215,48
78.7215,-8
78.7257,-41
78.7257,-52
78.7257,-58
78.7298,-60
78.7298,-77
78.7338,-67
78.7338,-5
78.7338,60
78.738,108
78.738,118
78.742,80
78.7421,23
78.7421,-21
78.7462,-45
78.7462,-54
78.7502,-56
78.7502,-59
78.7502,-79
78.7543,-46
78.7543,24
78.7544,79
78.7584,120
78.7584,105
78.7625,55
78.7625,-2
78.7625,-37
78.7666,-51
78.7666,-58
78.7707,-59
78.7707,-73
78.7707,-69
78.7748,-16
78.7748,54
78.7789,103
78.7789,120
78.7789,84
78.783,28
78.783,-17
78.783,-43
78.7871,-52
78.7871,-56
78.7912,-58
78.7912,-80
78.7912,-51
78.7953,16
78.7953,73
78.7994,119
78.7994,111
78.7994,61
78.8035,2
78.8035,-34
78.8035,-49
78.8076,-56
78.8076,-59
78.8117,-71
78.8117,-72
78.8117,-25
78.8157,46
78.8157,97
78.8199,122
78.8199,91
78.8199,38
78.824,-14
78.824,-44
78.828,-52
78.828,-57
78.8281,-59
78.8322,-78
78.8322,-59
78.8322,6
78.8362,67
78.8362,113
78.8404,115
78.8404,71
78.8404,13
78.8445,-26
78.8445,-46
78.8486,-56
78.8486,-58
78.8486,-64
78.8527,-76
78.8527,-36
78.8527,35
78.8567,87
78.8567,121
78.8608,99
78.8608,49
78.8608,-8
78.8649,-40
78.8649,-52
78.869,-58
78.869,-60
78.869,-76
78.8731,-67
78.8731,-7
78.8772,60
78.8772,107
78.8772,119
78.8813,81
78.8813,22
78.8814,-22
78.8854,-44
78.8854,-53
78.8895,-56
78.8895,-58
78.8895,-79
78.8936,-48
78.8936,22
78.8977,77
78.8977,120
78.8977,106
78.9018,57
78.9018,-2
78.9059,-36
78.9059,-49
78.9059,-57
78.91,-59
78.91,-72
78.91,-69
78.914,-19
78.914,51
78.9182,101
78.9182,119
78.9182,87
78.9222,32
78.9222,-17
78.9264,-43
78.9264,-51
78.9264,-56
78.9304,-59
78.9305,-81
78.9345,-53
78.9345,15
78.9346,72
78.9386,118
78.9387,112
78.9387,64
78.9427,4
78.9427,-33
78.9468,-49
78.9469,-57
78.9469,-57
78.951,-68
78.951,-73
78.955,-29
78.955,42
78.955,94
78.9591,121
78.9591,94
78.9591,41
78.9632,-12
78.9632,-41
78.9673,-51
78.9673,-57
78.9673,-59
78.9714,-80
78.9714,-62
78.9755,3
78.9756,68
78.9756,112
78.9796,116
78.9796,73
78.9837,14
78.9837,-26
78.9837,-46
78.9878,-54
78.9878,-56
78.9878,-63
78.9919,-78
78.9919,-39
78.996,33
78.996,86
78.996,122
79.0001,101
79.0001,49
79.0042,-8
79.0042,-40
79.0042,-51
79.0083,-56
79.0083,-59
79.0124,-77
79.0124,-67
79.0124,-7
79.0165,61
79.0165,107
79.0165,119
79.0205,81
79.0205,22
79.0247,-22
79.0247,-44
79.0247,-53
79.0288,-57
79.0288,-60
79.0328,-79
79.0329,-45
79.0329,26
79.037,80
79.037,119
79.041,105
79.041,55
79.0411,-3
79.0451,-38
79.0452,-50
79.0452,-57
79.0492,-59
79.0492,-74
79.0533,-67
79.0533,-14
79.0533,55
79.0574,103
79.0574,119
79.0615,84
79.0615,28
79.0615,-19
79.0656,-45
79.0656,-52
79.0697,-56
79.0697,-58
79.0697,-80
79.0738,-49
79.0738,19
79.0738,75
79.0779,119
79.0779,109
79.082,59
79.082,0
79.082,-36
79.0861,-49
79.0861,-56
79.0902,-59
79.0902,-71
79.0902,-69
79.0943,-22
79.0943,47
79.0943,99
79.0983,121
79.0984,89
79.1025,36
79.1025,-14
79.1025,-43
79.1065,-52
79.1066,-57
79.1107,-60
79.1107,-80
79.1107,-57
79.1147,10
79.1147,69
79.1189,115
79.1189,114
79.1189,69
79.123,9
79.123,-30
79.123,-47
79.127,-54
79.127,-57
79.1311,-65
79.1311,-77
79.1312,-35
79.1352,36
79.1352,89
79.1393,121
79.1393,98
79.1393,47
79.1434,-10
79.1434,-40
79.1475,-50
79.1475,-58
79.1475,-61
79.1516,-79
79.1516,-65
79.1516,0
79.1557,64
79.1557,109
79.1598,117
79.1598,77
79.1598,19
79.1639,-22
79.1639,-45
79.168,-54
79.168,-56
79.168,-60
79.1721,-79
79.1721,-44
79.1721,27
79.1762,80
79.1762,120
79.1803,104
79.1803,54
79.1803,-4
79.1844,-38
79.1844,-49
79.1885,-57
79.1885,-60
79.1885,-75
79.1926,-67
79.1926,-12
79.1967,55
79.1967,104
79.1967,120
79.2169,83
79.217,26
79.217,-19
79.217,-44
79.217,-53
79.217,-55
79.217,-58
79.217,-80
79.217,-49
79.217,20
79.2171,75
79.2172,118
79.2172,108
79.2212,59
79.2212,0
79.2254,-36
79.2254,-50
79.2254,-56
79.2295,-58
79.2295,-70
79.2295,-70
79.2335,-23
79.2335,48
79.2376,98
79.2376,120
79.2376,89
79.2417,36
79.2417,-15
79.2458,-42
79.2458,-52
79.2458,-57
79.25,-60
79.25,-81
79.254,-57
79.254,10
79.254,70
79.2581,117
79.2581,114
79.2581,67
79.2622,8
79.2622,-30
79.2663,-47
79.2663,-55
79.2663,-58
79.2704,-66
79.2704,-75
79.2745,-33
79.2745,37
79.2745,90
79.2786,120
79.2786,98
79.2827,45
79.2827,-10
79.2827,-41
79.2868,-52
79.2868,-57
79.2868,-58
79.2908,-78
79.2908,-64
79.295,0
79.295,63
79.295,109
79.299,117
79.299,78
79.3031,19
79.3031,-23
79.3031,-45
79.3073,-55
79.3073,-56
79.3073,-58
79.3113,-78
79.3113,-43
79.3154,28
79.3154,80
79.3154,120
79.3195,104
79.3195,54
79.3236,-5
79.3236,-38
79.3236,-51
79.3277,-58
79.3277,-60
79.3318,-75
79.3318,-67
79.3318,-12
79.336,56
79.336,104
79.34,119
79.34,82
79.34,25
79.3441,-19
79.3441,-43
79.3441,-53
79.3482,-56
79.3482,-57
79.3523,-79
79.3523,-47
79.3523,22
79.3564,76
79.3564,117
79.3605,105
79.3605,58
79.3605,0
79.3646,-35
79.3646,-49
79.3646,-57
79.3687,-61
79.3687,-75
79.3728,-70
79.3728,-18
79.3728,52
79.3769,102
79.3769,120
79.381,86
79.381,32
79.381,-17
79.3851,-43
79.3851,-52
79.3892,-56
79.3892,-58
79.3892,-79
79.3933,-54
79.3933,14
79.3933,72
79.3974,117
79.3974,111
79.4014,63
79.4015,4
79.4015,-33
79.4056,-48
79.4056,-55
79.4097,-57
79.4097,-68
79.4097,-73
79.4137,-29
79.4138,43
79.4138,94
79.4178,121
79.4179,93
79.422,41
79.422,-11
79.422,-42
79.426,-52
79.426,-57
79.4301,-59
79.4301,-79
79.4302,-61
79.4342,4
79.4342,66
79.4383,112
79.4383,116
79.4383,72
79.4424,12
79.4424,-27
79.4465,-47
79.4465,-54
79.4465,-56
79.4506,-61
79.4506,-76
79.4506,-39
79.4547,32
79.4547,84
79.4588,119
79.4588,101
79.4588,51
79.4629,-8
79.4629,-40
79.467,-51
79.467,-56
79.467,-60
79.4711,-76
79.4711,-65
79.4711,-6
79.4751,61
79.4752,108
79.4793,117
79.4793,78
79.4793,21
79.4834,-21
79.4834,-44
79.4875,-52
79.4875,-56
79.4875,-59
79.4916,-79
79.4916,-46
79.4956,25
79.4957,79
79.4957,120
79.4998,104
79.4998,55
79.4998,-3
79.5038,-38
79.5038,-50
79.508,-56
79.508,-59
79.508,-74
79.512,-68
79.5121,-15
79.5161,54
79.5162,103
79.5162,120
79.5202,83
79.5202,28
79.5243,-18
79.5243,-43
79.5243,-52
79.5284,-56
79.5284,-58
79.5284,-80
79.5325,-50
79.5325,19
79.5366,75
79.5366,118
79.5366,108
79.5407,58
79.5407,0
79.5448,-33
79.5448,-48
79.5448,-55
79.549,-59
79.549,-71
79.553,-71
79.553,-23
79.553,48
79.5571,98
79.5571,120
79.5571,90
79.5612,36
79.5612,-14
79.5653,-42
79.5653,-53
79.5653,-57
79.5694,-58
79.5694,-79
79.5734,-57
79.5734,9
79.5735,69
79.5776,114
79.5776,113
79.5776,69
79.5816,10
79.5816,-29
79.5858,-48
79.5858,-55
79.5858,-58
79.5899,-63
79.5899,-74
79.594,-34
79.594,36
79.594,88
79.598,119
79.5981,98
79.6022,47
79.6022,-9
79.6022,-40
79.6063,-50
79.6063,-57
79.6063,-59
79.6103,-76
79.6103,-65
79.6144,-5
79.6144,61
79.6145,107
79.6185,118
79.6185,80
79.6226,21
79.6226,-21
79.6226,-46
79.6267,-55
79.6267,-56
79.6308,-57
79.6308,-78
79.6308,-45
79.6349,24
79.6349,78
79.6349,119
79.639,105
79.639,56
79.6431,-2
79.6431,-37
79.6431,-50
79.6472,-57
79.6472,-60
79.6513,-74
79.6513,-69
79.6513,-15
79.6554,54
79.6554,103
79.6595,118
79.6595,83
79.6595,29
79.6636,-17
79.6636,-42
79.6636,-52
79.6677,-56
79.6677,-59
79.6718,-80
79.6718,-50
79.6718,19
79.6758,75
79.6758,118
79.68,108
79.68,60
79.68,1
79.6841,-34
79.6841,-48
79.6841,-57
79.6882,-59
79.6882,-71
79.6922,-70
79.6922,-23
79.6923,48
79.6963,98
79.6963,121
79.7004,89
79.7004,36
79.7005,-15
79.7045,-42
79.7045,-52
79.7086,-57
79.7086,-59
79.7086,-80
79.7127,-58
79.7127,9
79.7127,69
79.7168,113
79.7168,113
79.721,68
79.721,10
79.721,-26
79.725,-46
79.725,-54
79.7291,-55
79.7291,-63
79.7291,-77
79.7332,-36
79.7332,36
79.7332,87
79.7373,119
79.7373,98
79.7414,48
79.7414,-9
79.7414,-40
79.7455,-51
79.7455,-57
79.7496,-60
79.7496,-76
79.7496,-66
79.7537,-5
79.7537,61
79.7578,107
79.7578,117
79.7578,80
79.7619,22
79.7619,-21
79.7619,-45
79.766,-53
79.766,-56
79.7701,-58
79.7701,-80
79.7701,-47
79.7741,23
79.7741,77
79.7783,119
79.7783,106
79.7783,56
79.7824,-2
79.7824,-36
79.7864,-49
79.7864,-57
79.7865,-60
79.7906,-72
79.7906,-67
79.7906,-17
79.7946,52
79.7946,103
79.7987,119
79.7988,84
79.7988,30
79.8028,-16
79.8028,-42
79.807,-52
79.807,-56
79.807,-57
79.811,-80
79.811,-51
79.8151,16
79.8151,73
79.8151,118
79.8192,109
79.8192,59
79.8192,0
79.8233,-34
79.8233,-48
79.8274,-55
79.8274,-58
79.8274,-69
79.8315,-71
79.8315,-25
79.8356,46
79.8356,96
79.8356,121
79.8397,92
79.8397,38
79.8397,-14
79.8438,-43
79.8438,-52
79.8479,-57
79.8479,-59
79.8479,-79
79.852,-58
79.852,7
79.879,68
79.879,112
79.879,113
79.879,69
79.879,11
79.879,-27
79.879,-46
79.879,-54
79.879,-57
79.879,-63
79.879,-75
79.879,-35
79.8791,35
79.8791,87
79.8791,121
79.8791,98
79.8806,47
79.8806,-9
79.8848,-41
79.8848,-52
79.8848,-56
79.8889,-59
79.8889,-76
79.8889,-66
79.893,-6
79.893,60
79.8971,107
79.8971,118
79.8971,80
79.9011,23
79.9011,-21
79.9053,-44
79.9053,-53
79.9053,-57
79.9093,-59
79.9093,-79
79.9134,-46
79.9135,24
79.9135,78
79.9175,118
79.9175,104
79.9216,55
79.9216,-2
79.9216,-36
79.9257,-49
79.9257,-56
79.9257,-59
79.9298,-73
79.9298,-68
79.9339,-16
79.9339,52
79.9339,100
79.938,118
79.938,84
79.9421,29
79.9421,-17
79.9421,-41
79.9462,-51
79.9462,-56
79.9462,-58
79.9503,-80
79.9503,-54
79.9544,16
79.9544,74
79.9544,117
79.9584,110
79.9584,61
79.9626,3
79.9626,-33
79.9626,-48
79.9667,-56
79.9667,-58
79.9707,-70
79.9707,-71
79.9707,-26
79.9748,44
79.9748,94
79.9749,120
79.979,92
79.979,40
79.983,-12
79.983,-42
79.983,-52
79.9871,-58
79.9871,-60
79.9912,-78
79.9912,-59
79.9912,5
79.9953,67
79.9953,112
79.9994,114
79.9994,71
79.9994,13
80.0035,-26
80.0035,-45
80.0035,-54
80.0076,-57
80.0076,-64
80.0117,-76
80.0117,-36
80.0117,36
80.0158,87
80.0158,120
80.0199,98
80.0199,46
80.0199,-10
80.024,-41
80.024,-51
80.024,-56
80.0281,-58
80.0281,-76
80.0322,-65
80.0322,-5
80.0322,60
80.0363,106
80.0363,118
80.0404,79
80.0404,21
80.0404,-22
80.0445,-43
80.0445,-53
80.0486,-57
80.0486,-59
80.0486,-79
80.0527,-45
80.0527,25
80.0527,79
80.0567,119
80.0568,104
80.0609,55
80.0609,-3
80.0609,-37
80.065,-50
80.065,-57
80.0691,-59
80.0691,-73
80.0691,-68
80.0731,-15
80.0732,54
80.0773,103
80.0773,118
80.0773,82
80.0813,27
80.0813,-17
80.0814,-41
80.0854,-51
80.0854,-55
80.0895,-59
80.0895,-80
80.0896,-50
80.0936,19
80.0936,74
80.0977,119
80.0978,108
80.0978,57
80.1018,0
80.1018,-35
80.1059,-48
80.1059,-56
80.1059,-58
80.11,-71
80.11,-70
80.11,-23
80.1141,47
80.1141,97
80.1182,119
80.1182,88
80.1182,37
80.1223,-14
80.1223,-43
80.1264,-52
80.1264,-56
80.1264,-58
80.1305,-78
80.1305,-57
80.1305,9
80.1346,69
80.1346,112
80.1387,112
80.1387,67
80.1387,9
80.1428,-29
80.1428,-46
80.1469,-54
80.1469,-56
80.1469,-63
80.151,-75
80.151,-36
80.155,35
80.155,87
80.1551,121
80.1591,98
80.1592,47
80.1592,-9
80.1632,-41
80.1632,-50
80.1674,-57
80.1674,-58
80.1674,-76
80.1715,-65
80.1715,-5
80.1755,60
80.1755,106
80.1756,116
80.1796,79
80.1796,22
80.1837,-21
80.1837,-44
80.1837,-53
80.1878,-56
80.1879,-59
80.1879,-81
80.1919,-46
80.1919,26
80.196,79
80.196,118
80.196,104
80.2001,54
80.2001,-3
80.2042,-37
80.2042,-49
80.2042,-56
80.2083,-59
80.2083,-74
80.2083,-68
80.2124,-16
80.2124,53
80.2165,101
80.2165,117
80.2165,83
80.2206,30
80.2206,-15
80.2247,-42
80.2247,-52
80.2247,-55
80.2288,-57
80.2288,-79
80.2329,-50
80.2329,18
80.2329,74
80.237,118
80.237,108
80.237,59
80.241,0
80.241,-35
80.2452,-49
80.2452,-56
80.2452,-57
80.2493,-70
80.2493,-70
80.2533,-24
80.2534,48
80.2534,96
80.2574,120
80.2574,90
80.2615,37
80.2616,-14
80.2616,-42
80.2657,-51
80.2657,-55
80.2657,-58
80.2697,-79
80.2697,-58
80.2738,8
80.2738,67
80.2738,112
80.278,113
80.278,69
80.282,11
80.282,-28
80.282,-46
80.2861,-54
80.2862,-56
80.2902,-64
80.2902,-76
80.2902,-35
80.2943,36
80.2943,88
80.2943,121
80.2984,98
80.2984,47
80.3025,-9
80.3025,-41
80.3025,-52
80.3066,-57
80.3066,-59
80.3107,-76
80.3107,-64
80.3107,-4
80.3148,61
80.3148,106
80.3148,117
80.3189,79
80.3189,21
80.323,-21
80.323,-44
80.323,-53
80.3271,-55
80.3271,-59
80.3312,-79
80.3312,-45
80.3312,24
80.3353,79
80.3353,120
80.3394,105
80.3394,55
80.3394,-3
80.3435,-37
80.3435,-51
80.3435,-57
80.3475,-60
80.3476,-74
80.3517,-68
80.3517,-13
80.3517,54
80.3558,102
80.3558,118
80.3599,84
80.3599,28
80.3599,-17
80.364,-42
80.364,-52
80.368,-55
80.368,-58
80.3681,-79
80.3722,-51
80.3722,18
80.3722,73
80.3762,118
80.3762,108
80.3803,60
80.3803,0
80.3803,-33
80.3844,-47
80.3844,-54
80.3885,-58
80.3885,-72
80.3885,-71
80.3926,-24
80.3926,48
80.3926,98
80.3967,120
80.3967,91
80.4008,37
80.4008,-15
80.4008,-43
80.4049,-52
80.4049,-57
80.409,-58
80.409,-79
80.409,-59
80.4131,8
80.4131,68
80.4172,112
80.4172,113
80.4172,68
80.4213,10
80.4213,-28
80.4213,-46
80.4254,-55
80.4254,-56
80.4295,-64
80.4295,-74
80.4295,-33
80.4335,37
80.4335,88
80.4377,119
80.4377,97
80.4377,45
80.4418,-9
80.4418,-41
80.4458,-51
80.4459,-57
80.4459,-59
80.45,-77
80.45,-65
80.45,-2
80.454,62
80.454,107
80.4581,117
80.4582,78
80.4582,20
80.4622,-23
80.4622,-44
80.4663,-53
80.4663,-56
80.4664,-58
80.4704,-78
80.4704,-43
80.4704,27
80.4745,80
80.4745,117
80.4786,101
80.4786,53
80.4786,-4
80.4827,-39
80.4827,-50
80.4868,-55
80.4868,-57
80.4868,-73
80.4909,-67
80.4909,-13
80.495,55
80.495,104
80.495,117
80.4991,81
80.4991,26
80.5032,-18
80.5032,-42
80.5032,-52
80.5073,-56
80.5073,-60
80.5073,-80
80.5114,-48
80.5114,21
80.541,75
80.541,119
80.541,106
80.5411,58
80.5411,0
80.5411,-34
80.5411,-49
80.5411,-56
80.5411,-58
80.5411,-72
80.5411,-69
80.5411,-20
80.5411,48
80.5411,99
80.5411,119
80.5411,87
80.5411,34
80.5412,-15
80.5442,-42
80.5442,-52
80.5442,-56
80.5483,-58
80.5483,-79
80.5523,-54
80.5523,11
80.5524,69
80.5565,116
80.5565,112
80.5565,64
80.5605,7
80.5605,-31
80.5647,-48
80.5647,-56
80.5647,-57
80.5687,-65
80.5687,-72
80.5728,-30
80.5728,40
80.5728,91
80.577,120
80.577,94
80.581,42
80.581,-10
80.581,-40
80.5851,-51
80.5851,-57
80.5851,-58
80.5892,-79
80.5892,-63
80.5933,0
80.5933,65
80.5933,109
80.5974,115
80.5974,75
80.6015,17
80.6015,-24
80.6015,-45
80.6056,-54
80.6056,-57
80.6056,-61
80.6097,-77
80.6097,-40
80.6138,29
80.6138,82
80.6138,118
80.6178,101
80.6178,51
80.622,-6
80.622,-39
80.622,-50
80.6261,-56
80.6261,-59
80.6302,-75
80.6302,-66
80.6302,-10
80.6343,57
80.6343,104
80.6383,118
80.6383,82
80.6383,24
80.6425,-19
80.6425,-43
80.6425,-52
80.6465,-56
80.6465,-58
80.6506,-80
80.6506,-46
80.6506,22
80.6547,76
80.6547,117
80.6588,105
80.6588,57
80.6588,-2
80.663,-36
80.663,-49
80.663,-56
80.667,-58
80.667,-71
80.6711,-68
80.6711,-18
80.6711,52
80.6752,100
80.6752,118
80.6793,84
80.6793,30
80.6793,-17
80.6834,-43
80.6835,-51
80.6875,-54
80.6875,-57
80.6875,-79
80.6916,-52
80.6916,16
80.6916,72
80.6957,116
80.6957,109
80.6998,60
80.6998,1
80.6998,-34
80.7039,-49
80.7039,-55
80.708,-57
80.708,-69
80.708,-69
80.7121,-26
80.7121,45
80.7162,96
80.7162,119
80.7162,89
80.7203,36
80.7203,-15
80.7203,-41
80.7244,-49
80.7244,-55
80.7285,-59
80.7285,-81
80.7285,-58
80.7325,8
80.7326,68
80.7367,113
80.7367,114
80.7367,68
80.7407,11
80.7408,-27
80.7449,-46
80.7449,-54
80.7449,-57
80.749,-64
80.749,-75
80.7491,-35
80.753,35
80.753,86
80.7571,118
80.7571,97
80.7571,48
80.7612,-8
80.7612,-40
80.7653,-50
80.7653,-57
80.7653,-58
80.7694,-75
80.7694,-65
80.7694,-5
80.7735,60
80.7735,105
80.7776,115
80.7776,79
80.7776,23
80.7817,-20
80.7817,-43
80.7858,-53
80.7858,-55
80.7858,-58
80.7899,-79
80.7899,-45
80.794,23
80.794,77
80.794,118
80.7981,104
80.7981,55
80.7981,-3
80.8022,-36
80.8022,-49
80.8063,-56
80.8063,-59
80.8063,-73
80.8104,-66
80.8104,-15
80.8145,53
80.8145,102
80.8145,118
80.8186,82
80.8186,27
80.8226,-16
80.8226,-42
80.8227,-52
80.8268,-55
80.8268,-58
80.8268,-79
80.8308,-50
80.8308,18
80.835,73
80.835,117
80.835,108
80.839,58
80.839,0
80.8432,-34
80.8432,-49
80.8432,-56
80.8472,-58
80.8472,-71
80.8513,-68
80.8513,-21
80.8513,48
80.8554,98
80.8554,119
80.8554,89
80.8595,34
80.8595,-16
80.8636,-44
80.8636,-53
80.8636,-56
80.8677,-57
80.8677,-77
80.8718,-56
80.8718,9
80.8718,68
80.876,114
80.876,113
80.876,67
80.88,8
80.88,-29
80.8841,-47
80.8841,-54
80.8841,-57
80.8882,-64
80.8882,-74
80.8923,-33
80.8923,37
80.8923,87
80.8964,118
80.8964,95
80.9005,45
80.9005,-9
80.9005,-39
80.9046,-50
80.9046,-56
80.9046,-57
80.9086,-75
80.9086,-66
80.9128,-4
80.9128,60
80.9128,105
80.9168,116
80.9169,78
80.921,21
80.921,-21
80.921,-43
80.9251,-52
80.9251,-55
80.9291,-58
80.9292,-79
80.9292,-44
80.9332,25
80.9333,79
80.9333,118
80.9373,101
80.9373,53
80.9414,-3
80.9414,-35
80.9415,-48
80.9455,-56
80.9455,-59
80.9496,-74
80.9496,-67
80.9496,-15
80.9537,53
80.9537,102
80.9578,118
80.9578,83
80.9578,27
80.962,-17
80.962,-43
80.962,-51
80.966,-54
80.966,-56
80.9701,-79
80.9701,-49
80.9701,19
80.9742,74
80.9742,117
80.9783,108
80.9783,58
80.9783,0
80.9824,-37
80.9824,-51
80.9824,-55
80.9865,-57
80.9865,-69
80.9906,-68
80.9906,-21
80.9906,49
80.9947,97
80.9947,119
80.9988,87
80.9988,34
80.9988,-15
81.0029,-41
81.0029,-52
81.007,-57
81.007,-58
81.007,-78
81.0111,-55
81.0111,11
81.0111,69
81.0151,113
81.0152,111
81.0193,65
81.0193,7
81.0193,-30
81.0233,-46
81.0233,-54
81.0274,-56
81.0275,-64
81.0275,-72
81.0315,-31
81.0315,37
81.0316,89
81.0356,119
81.0356,93
81.0397,44
81.0398,-10
81.0398,-41
81.0438,-51
81.0438,-55
81.048,-58
81.048,-77
81.048,-62
81.052,0
81.052,63
81.0561,108
81.0561,114
81.0561,73
81.0602,16
81.0602,-25
81.0602,-44
81.0643,-52
81.0643,-55
81.0684,-59
81.0684,-78
81.0684,-42
81.0725,29
81.0725,81
81.0766,118
81.0766,101
81.0766,52
81.0807,-6
81.0807,-39
81.0848,-51
81.0848,-56
81.0848,-58
81.0889,-74
81.0889,-66
81.0889,-9
81.093,57
81.093,102
81.0971,116
81.0971,81
81.0971,26
81.1012,-19
81.1012,-43
81.1053,-51
81.1053,-54
81.1053,-56
81.1094,-79
81.1094,-50
81.1134,18
81.1134,73
81.1134,117
81.1175,108
81.1175,61
81.1175,0
81.1216,-36
81.1217,-49
81.1258,-54
81.1258,-56
81.1258,-71
81.1298,-70
81.1299,-23
81.134,48
81.134,99
81.134,118
81.138,88
81.138,35
81.1421,-15
81.1421,-41
81.1421,-52
81.1462,-56
81.1462,-57
81.1462,-78
81.1503,-55
81.1503,10
81.1544,68
81.1544,114
81.1545,111
81.1585,65
81.1585,7
81.1626,-29
81.1626,-47
81.1626,-54
81.1667,-56
81.1667,-64
81.1668,-73
81.1708,-31
81.1708,39
81.1749,89
81.1749,117
81.1749,95
81.179,45
81.179,-10
81.1831,-41
81.1831,-53
81.1831,-58
81.1872,-59
81.1872,-76
81.1912,-60
81.1913,2
81.1913,64
81.1954,107
81.1954,113
81.1954,75
81.1994,18
81.1994,-23
81.2036,-47
81.2036,-55
81.2036,-56
81.2077,-57
81.2077,-72
81.2117,-40
81.2118,28
81.2118,81
81.2159,118
81.2159,99
81.22,49
81.22,-8
81.22,-40
81.224,-48
81.224,-54
81.224,-58
81.2281,-74
81.2281,-66
81.2322,-11
81.2323,56
81.2323,104
81.2363,117
81.2363,81
81.2404,26
81.2404,-19
81.2404,-43
81.2445,-52
81.2445,-55
81.2445,-57
81.2486,-78
81.2486,-47
81.2527,20
81.2527,74
81.2527,116
81.2568,105
81.2568,56
81.2609,0
81.2609,-35
81.2609,-48
81.265,-55
81.265,-57
81.2691,-69
81.2691,-67
81.2691,-19
81.2732,48
81.2732,96
81.2732,117
81.2773,87
81.2773,33
81.2814,-16
81.2814,-42
81.2814,-49
81.2855,-54
81.2855,-58
81.2896,-80
81.2896,-56
81.2896,11
81.2937,69
81.2937,115
81.2978,111
81.2978,64
81.2978,6
81.3019,-30
81.3019,-46
81.3019,-53
81.306,-57
81.306,-65
81.3101,-72
81.3101,-30
81.3101,39
81.3141,89
81.3141,117
81.3182,90
81.3182,42
81.3182,-9
