Program Time [s],data 0
646.755,60
646.755,40
646.759,14
646.759,-10
646.759,-29
646.763,-39
646.763,-42
646.763,-40
646.763,-35
646.767,-34
646.767,-35
646.767,-29
646.771,-10
646.771,17
646.771,44
646.771,64
646.775,73
646.775,65
646.775,46
646.779,22
646.779,-3
646.78,-24
646.78,-37
646.784,-42
646.784,-40
646.784,-36
646.788,-33
646.788,-34
646.788,-32
646.788,-17
646.792,8
646.792,34
646.792,58
646.796,72
646.796,70
646.796,55
646.796,31
646.8,5
646.8,-17
646.8,-33
646.8,-40
646.804,-41
646.804,-37
646.804,-32
646.808,-33
646.808,-33
646.808,-24
646.808,-2
646.812,24
646.812,50
646.812,67
646.816,71
646.816,61
646.816,40
646.816,14
646.82,-10
646.82,-29
646.82,-40
646.825,-42
646.825,-39
646.825,-34
646.825,-34
646.829,-35
646.829,-29
646.829,-10
646.833,16
646.833,43
646.833,65
646.833,74
646.837,66
646.837,47
646.837,22
646.841,-3
646.841,-23
646.841,-36
646.841,-41
646.845,-40
646.845,-35
646.845,-33
646.849,-34
646.849,-32
646.849,-18
646.849,7
646.853,35
646.853,58
646.853,71
646.853,70
646.857,55
646.857,31
646.857,5
646.861,-17
646.861,-33
646.861,-40
646.861,-41
646.865,-37
646.865,-33
646.865,-33
646.87,-33
646.87,-24
646.87,-3
646.87,24
646.874,49
646.874,67
646.874,71
646.878,61
646.878,41
646.878,15
646.878,-9
646.882,-28
646.882,-39
646.882,-42
646.886,-40
646.886,-34
646.886,-33
646.886,-35
646.89,-30
646.89,-11
646.89,14
646.894,42
646.894,63
646.894,72
646.894,67
646.898,48
646.898,23
646.898,-2
646.902,-23
646.902,-35
646.902,-40
646.902,-39
646.906,-36
646.906,-33
646.906,-34
646.906,-32
646.911,-19
646.911,5
646.911,33
646.915,57
646.915,71
646.915,71
646.915,56
646.919,32
646.919,6
646.919,-16
646.923,-32
646.923,-40
646.923,-41
646.923,-37
646.927,-33
646.927,-33
646.927,-33
646.931,-24
646.931,-3
646.931,24
646.931,49
646.935,67
646.935,71
646.935,61
646.939,41
646.939,16
646.939,-9
646.939,-28
646.943,-38
646.943,-42
646.943,-39
646.943,-35
646.947,-34
646.947,-35
646.947,-30
646.952,-12
646.952,14
646.952,42
646.952,63
646.956,72
646.956,67
646.956,48
646.96,23
646.96,-2
646.96,-22
646.96,-35
646.964,-40
646.964,-40
646.964,-36
646.968,-33
646.968,-34
646.968,-32
646.968,-19
646.972,4
646.972,32
646.972,56
646.976,71
646.976,71
646.976,57
646.976,33
646.98,7
646.98,-16
646.98,-31
646.984,-39
646.984,-41
646.984,-38
646.984,-34
646.988,-33
646.988,-34
646.988,-25
646.988,-4
646.992,22
646.992,48
646.992,67
646.997,73
646.997,62
646.997,42
646.997,16
647.001,-9
647.001,-28
647.001,-38
647.005,-42
647.005,-40
647.005,-35
647.005,-34
647.009,-35
647.009,-30
647.009,-12
647.013,13
647.013,41
647.013,63
647.013,74
647.017,68
647.017,49
647.017,23
647.021,-2
647.021,-23
647.021,-35
647.021,-40
647.025,-40
647.025,-36
647.025,-33
647.029,-34
647.029,-32
647.029,-19
647.029,4
647.033,32
647.033,56
647.033,71
647.037,70
647.038,57
647.038,34
647.038,8
647.042,-15
647.042,-31
647.042,-40
647.042,-41
647.046,-38
647.046,-33
647.046,-33
647.05,-34
647.05,-26
647.05,-5
647.05,20
647.054,47
647.054,66
647.054,72
647.058,63
647.058,43
647.058,17
647.058,-7
647.062,-27
647.062,-38
647.062,-41
647.066,-39
647.066,-35
647.066,-34
647.066,-35
647.07,-31
647.07,-14
647.07,11
647.074,39
647.074,62
647.074,73
647.074,69
647.078,52
647.078,26
647.078,0
647.083,-20
647.083,-34
647.083,-40
647.083,-40
647.087,-36
647.087,-32
647.087,-34
647.087,-33
647.091,-21
647.091,3
647.091,30
647.095,55
647.095,70
647.095,72
647.095,57
647.099,36
647.099,9
647.099,-14
647.103,-31
647.103,-40
647.103,-41
647.103,-38
647.107,-34
647.107,-34
647.107,-34
647.111,-26
647.111,-6
647.111,20
647.111,46
647.115,66
647.115,72
647.115,64
647.119,44
647.119,19
647.119,-6
647.119,-26
647.124,-38
647.124,-42
647.124,-40
647.128,-35
647.128,-33
647.128,-35
647.128,-31
647.132,-15
647.132,10
647.132,38
647.132,61
647.136,73
647.136,68
647.136,52
647.14,27
647.14,0
647.14,-20
647.14,-34
647.144,-40
647.144,-40
647.144,-36
647.148,-32
647.148,-33
647.148,-32
647.148,-21
647.152,1
647.152,29
647.152,54
647.156,69
647.156,71
647.156,58
647.156,36
647.16,10
647.16,-13
647.16,-31
647.164,-39
647.164,-42
647.164,-38
647.164,-34
647.169,-33
647.169,-34
647.169,-27
647.169,-7
647.173,19
647.173,45
647.173,65
647.177,73
647.177,64
647.177,44
647.177,19
647.181,-5
647.181,-25
647.181,-37
647.185,-42
647.185,-41
647.185,-35
647.185,-33
647.189,-35
647.189,-32
647.189,-15
647.193,9
647.193,38
647.193,60
647.193,72
647.197,68
647.197,52
647.197,28
647.201,2
647.201,-18
647.201,-33
647.201,-40
647.206,-40
647.206,-36
647.206,-31
647.21,-32
647.21,-33
647.21,-22
647.21,0
647.214,27
647.214,52
647.214,69
647.218,72
647.218,59
647.218,38
647.218,13
647.222,-11
647.222,-29
647.222,-39
647.222,-42
647.226,-39
647.226,-35
647.226,-33
647.23,-34
647.23,-27
647.23,-8
647.23,18
647.234,44
647.234,64
647.234,72
647.238,65
647.238,45
647.238,20
647.238,-4
647.242,-24
647.242,-36
647.242,-41
647.255,-40
647.255,-36
647.255,-33
647.255,-34
647.255,-31
647.255,-17
647.255,7
647.255,35
647.255,59
647.255,71
647.255,70
647.259,55
647.259,31
647.259,4
647.263,-18
647.263,-33
647.263,-40
647.263,-42
647.267,-38
647.267,-33
647.267,-33
647.267,-33
647.276,-23
647.276,-1
647.276,25
647.276,51
647.277,68
647.277,72
647.277,60
647.279,39
647.279,13
647.279,-11
647.283,-29
647.283,-39
647.283,-42
647.283,-39
647.287,-34
647.287,-34
647.287,-34
647.291,-28
647.291,-10
647.291,16
647.291,44
647.296,65
647.296,73
647.296,65
647.3,47
647.3,21
647.3,-3
647.3,-24
647.304,-36
647.304,-41
647.304,-40
647.308,-36
647.308,-33
647.308,-34
647.308,-32
647.312,-17
647.312,7
647.312,35
647.312,59
647.316,71
647.316,70
647.316,54
647.32,31
647.32,5
647.32,-16
647.32,-33
647.324,-40
647.324,-41
647.324,-37
647.328,-32
647.328,-33
647.328,-33
647.328,-24
647.332,-3
647.332,24
647.332,50
647.336,67
647.336,71
647.336,61
647.336,40
647.341,14
647.341,-10
647.341,-27
647.345,-38
647.345,-42
647.345,-39
647.345,-35
647.349,-34
647.349,-34
647.349,-28
647.353,-9
647.353,16
647.353,43
647.353,63
647.357,72
647.357,67
647.357,47
647.361,22
647.361,-3
647.361,-23
647.361,-36
647.365,-42
647.365,-40
647.365,-36
647.365,-33
647.369,-34
647.369,-32
647.369,-17
647.373,6
647.373,33
647.373,57
647.373,71
647.377,70
647.377,54
647.377,31
647.382,5
647.382,-16
647.382,-32
647.382,-40
647.386,-41
647.386,-37
647.386,-33
647.39,-33
647.39,-33
647.39,-24
647.39,-3
647.394,24
647.394,49
647.394,67
647.398,71
647.398,61
647.398,41
647.398,15
647.402,-10
647.402,-27
647.402,-39
647.406,-42
647.406,-39
647.406,-34
647.406,-33
647.41,-34
647.41,-29
647.41,-10
647.41,15
647.414,42
647.414,64
647.414,73
647.418,66
647.418,48
647.418,22
647.418,-3
647.423,-24
647.423,-36
647.423,-41
647.427,-40
647.427,-35
647.427,-33
647.427,-34
647.431,-32
647.431,-17
647.431,6
647.435,34
647.435,58
647.435,72
647.435,70
647.439,54
647.439,31
647.439,6
647.443,-16
647.443,-32
647.443,-40
647.443,-41
647.447,-37
647.447,-33
647.447,-33
647.451,-33
647.451,-24
647.451,-3
647.451,23
647.455,49
647.455,66
647.455,72
647.455,61
647.459,41
647.459,16
647.459,-9
647.464,-28
647.464,-38
647.464,-42
647.464,-40
647.468,-35
647.468,-33
647.468,-35
647.472,-29
647.472,-12
647.472,14
647.472,42
647.476,63
647.476,72
647.476,67
647.48,48
647.48,23
647.48,-2
647.48,-23
647.484,-35
647.484,-40
647.484,-40
647.488,-36
647.488,-33
647.488,-34
647.488,-32
647.492,-19
647.492,5
647.492,33
647.496,57
647.496,71
647.496,70
647.496,55
647.5,32
647.5,6
647.5,-16
647.504,-32
647.504,-40
647.504,-41
647.504,-37
647.509,-33
647.509,-33
647.509,-33
647.509,-25
647.513,-3
647.513,23
647.513,49
647.517,67
647.517,73
647.517,62
647.517,41
647.521,15
647.521,-9
647.521,-28
647.525,-38
647.525,-42
647.525,-39
647.525,-35
647.529,-34
647.529,-35
647.529,-30
647.533,-12
647.533,13
647.533,41
647.533,64
647.537,73
647.537,68
647.537,48
647.541,23
647.541,-2
647.541,-23
647.541,-35
647.545,-40
647.545,-40
647.545,-36
647.549,-33
647.549,-34
647.549,-32
647.549,-19
647.554,4
647.554,32
647.554,57
647.554,71
647.558,70
647.558,56
647.558,34
647.562,7
647.562,-15
647.562,-31
647.562,-39
647.566,-41
647.566,-38
647.566,-34
647.57,-34
647.57,-34
647.57,-25
647.57,-5
647.574,21
647.574,48
647.574,66
647.578,72
647.578,63
647.578,42
647.578,16
647.582,-8
647.582,-27
647.582,-38
647.586,-42
647.586,-40
647.586,-35
647.586,-33
647.59,-34
647.59,-30
647.59,-14
647.595,12
647.595,40
647.595,62
647.595,73
647.599,67
647.599,50
647.599,25
647.599,0
647.603,-21
647.603,-34
647.603,-41
647.607,-40
647.607,-35
647.607,-32
647.607,-34
647.611,-33
647.611,-20
647.611,3
647.615,31
647.615,55
647.615,70
647.615,70
647.619,56
647.619,34
647.619,8
647.623,-15
647.623,-31
647.623,-40
647.623,-42
647.627,-37
647.627,-33
647.627,-32
647.631,-34
647.631,-25
647.631,-6
647.631,21
647.635,47
647.635,67
647.635,73
647.64,63
647.64,43
647.64,17
647.64,-8
647.644,-26
647.644,-38
647.644,-42
647.644,-40
647.648,-35
647.648,-33
647.648,-35
647.652,-31
647.652,-14
647.652,12
647.652,40
647.656,62
647.656,73
647.656,68
647.66,51
647.66,26
647.66,1
647.66,-21
647.664,-34
647.664,-41
647.664,-41
647.668,-36
647.668,-32
647.668,-33
647.668,-32
647.672,-21
647.672,2
647.672,30
647.676,54
647.676,70
647.676,71
647.676,58
647.681,35
647.681,9
647.681,-14
647.685,-31
647.685,-39
647.685,-41
647.685,-38
647.689,-33
647.689,-33
647.689,-34
647.689,-27
647.693,-6
647.693,19
647.693,46
647.697,66
647.697,72
647.697,64
647.697,44
647.701,18
647.701,-6
647.701,-26
647.705,-38
647.705,-42
647.705,-39
647.705,-35
647.709,-33
647.709,-35
647.709,-31
647.713,-15
647.713,10
647.713,37
647.713,61
647.717,72
647.717,68
647.717,51
647.721,27
647.721,2
647.721,-20
647.721,-34
647.726,-40
647.726,-40
647.726,-35
647.73,-32
647.73,-33
647.73,-33
647.73,-22
647.734,0
647.734,28
647.734,52
647.734,69
647.738,72
647.738,59
647.738,37
647.742,11
647.742,-13
647.742,-30
647.742,-40
647.746,-42
647.746,-38
647.746,-33
647.75,-33
647.75,-35
647.75,-27
647.75,-7
647.754,20
647.754,45
647.754,65
647.758,73
647.758,64
647.758,44
647.758,19
647.762,-6
647.763,-25
647.763,-37
647.767,-42
647.767,-40
647.767,-36
647.767,-33
647.771,-35
647.771,-32
647.771,-16
647.775,10
647.775,37
647.775,60
647.775,73
647.779,69
647.779,52
647.779,29
647.779,2
647.783,-19
647.783,-34
647.783,-40
647.787,-41
647.787,-37
647.787,-32
647.787,-33
647.791,-33
647.791,-22
647.791,0
647.795,28
647.795,52
647.795,69
647.795,71
647.799,59
647.799,37
647.799,12
647.803,-12
647.803,-30
647.803,-39
647.803,-42
647.807,-39
647.807,-34
647.808,-34
647.812,-35
647.812,-27
647.812,-8
647.812,19
647.816,44
647.816,65
647.816,73
647.82,64
647.82,45
647.82,20
647.82,-5
647.824,-25
647.824,-37
647.824,-42
647.828,-41
647.828,-36
647.828,-33
647.828,-35
647.832,-32
647.832,-16
647.832,9
647.832,36
647.836,59
647.836,71
647.836,69
647.84,53
647.84,29
647.84,4
647.84,-18
647.844,-32
647.844,-40
647.844,-40
647.849,-36
647.849,-32
647.849,-33
647.849,-33
647.853,-24
647.853,-2
647.853,26
647.857,51
647.857,69
647.857,73
647.857,60
647.861,39
647.861,12
647.861,-11
647.865,-29
647.865,-39
647.865,-42
647.865,-39
647.869,-35
647.869,-34
647.869,-35
647.873,-28
647.873,-9
647.873,17
647.873,43
647.877,64
647.877,72
647.877,66
647.877,46
647.881,21
647.881,-3
647.881,-24
647.885,-36
647.885,-40
647.885,-39
647.885,-35
647.889,-34
647.889,-36
647.889,-33
647.894,-18
647.894,8
647.894,36
647.894,60
647.898,72
647.898,70
647.898,54
647.902,31
647.902,4
647.902,-17
647.902,-33
647.906,-40
647.906,-42
647.906,-38
647.91,-33
647.91,-33
647.91,-34
647.91,-24
647.914,-2
647.914,25
647.914,50
647.918,69
647.918,73
647.918,62
647.918,41
647.922,13
647.922,-11
647.922,-30
647.922,-40
647.926,-42
647.926,-39
647.926,-35
647.93,-34
647.93,-35
647.93,-28
647.93,-9
647.934,16
647.934,42
647.934,64
647.939,73
647.939,66
647.939,48
647.939,22
647.943,-2
647.943,-23
647.943,-35
647.947,-40
647.947,-41
647.947,-35
647.947,-33
647.951,-34
647.951,-32
647.951,-18
647.955,6
647.955,33
647.955,57
647.955,70
647.959,69
647.959,54
647.959,32
647.959,7
647.963,-15
647.963,-31
647.963,-40
647.967,-41
647.967,-37
647.967,-32
647.967,-32
647.971,-33
647.971,-24
647.971,-3
647.975,23
647.975,48
647.975,66
647.975,71
647.98,61
647.98,41
647.98,15
647.984,-9
647.984,-27
647.984,-39
647.984,-42
647.988,-39
647.988,-34
647.988,-33
647.992,-34
647.992,-30
647.992,-13
647.992,12
647.996,41
647.996,64
647.996,73
648,68
648,49
648,23
648,-3
648.004,-23
648.004,-35
648.004,-40
648.008,-40
648.008,-36
648.008,-33
648.008,-34
648.012,-33
648.012,-19
648.012,5
648.012,33
648.016,57
648.016,71
648.016,71
648.021,57
648.021,34
648.021,8
648.021,-15
648.025,-33
648.025,-42
648.025,-44
648.029,-39
648.029,-34
648.029,-32
648.029,-33
648.033,-24
648.033,-3
648.033,23
648.037,48
648.037,67
648.037,72
648.037,63
648.041,42
648.041,16
648.041,-8
648.045,-28
648.045,-38
648.045,-42
648.045,-40
648.049,-34
648.049,-32
648.049,-34
648.053,-31
648.053,-15
648.053,11
648.053,39
648.057,61
648.057,72
648.057,68
648.057,50
648.061,25
648.061,0
648.061,-22
648.066,-36
648.066,-42
648.066,-41
648.066,-37
648.07,-34
648.07,-35
648.07,-34
648.074,-20
648.074,3
648.074,31
648.074,57
648.078,74
648.078,75
648.078,61
648.082,38
648.082,11
648.082,-13
648.082,-31
648.086,-41
648.086,-43
648.086,-39
648.09,-35
648.09,-36
648.09,-38
648.09,-28
648.094,-4
648.094,25
648.094,54
648.098,75
648.098,81
648.098,70
648.098,47
648.102,17
648.102,-9
648.102,-31
648.107,-42
648.107,-47
648.107,-43
648.107,-39
648.111,-37
648.111,-38
648.111,-33
648.111,-16
648.115,11
648.115,41
648.115,66
648.119,79
648.119,74
648.119,56
648.119,28
648.123,0
648.123,-24
648.123,-39
648.127,-46
648.127,-46
648.127,-41
648.127,-37
648.131,-39
648.131,-38
648.131,-26
648.135,0
648.135,31
648.135,59
648.135,76
648.139,79
648.139,65
648.139,41
648.143,11
648.143,-14
648.143,-34
648.143,-43
648.147,-47
648.147,-43
648.147,-39
648.152,-38
648.152,-39
648.152,-31
648.152,-8
648.156,22
648.156,53
648.156,76
648.156,83
648.16,74
648.16,51
648.16,23
648.164,-6
648.164,-28
648.164,-43
648.164,-48
648.168,-46
648.168,-42
648.168,-40
648.172,-42
648.172,-38
648.172,-18
648.172,10
648.176,43
648.176,70
648.176,85
648.18,80
648.18,60
648.18,33
648.18,3
648.184,-20
648.184,-37
648.184,-46
648.188,-48
648.188,-44
648.188,-40
648.188,-42
648.193,-42
648.193,-28
648.193,0
648.197,31
648.197,61
648.197,81
648.197,85
648.201,71
648.201,46
648.201,15
648.205,-13
648.205,-33
648.205,-45
648.205,-48
648.209,-46
648.209,-41
648.209,-43
648.209,-44
648.213,-36
648.213,-12
648.213,19
648.217,51
648.217,76
648.217,85
648.217,77
648.221,55
648.221,25
648.221,-4
648.225,-28
648.225,-41
648.225,-48
648.225,-47
648.229,-43
648.229,-42
648.229,-45
648.233,-41
648.233,-21
648.233,8
648.233,42
648.238,69
648.238,85
648.238,82
648.242,63
648.242,36
648.242,5
648.242,-20
648.246,-37
648.246,-46
648.246,-46
648.25,-43
648.25,-40
648.25,-43
648.25,-44
648.254,-31
648.254,-3
648.254,30
648.254,61
648.258,81
648.258,86
648.258,72
648.262,47
648.262,16
648.262,-11
648.262,-33
648.266,-44
648.266,-47
648.266,-45
648.27,-41
648.27,-42
648.27,-44
648.27,-37
648.274,-13
648.274,19
648.274,51
648.279,76
648.279,86
648.279,77
648.279,55
648.283,25
648.283,-4
648.283,-28
648.287,-41
648.287,-48
648.287,-47
648.287,-43
648.291,-42
648.291,-45
648.291,-40
648.295,-20
648.295,9
648.295,41
648.295,68
648.299,83
648.299,81
648.299,63
648.303,35
648.303,6
648.303,-19
648.303,-37
648.307,-45
648.307,-47
648.307,-43
648.307,-39
648.311,-41
648.311,-42
648.311,-29
648.315,-2
648.315,29
648.315,59
648.315,79
648.319,83
648.319,70
648.319,46
648.324,16
648.324,-12
648.324,-32
648.324,-44
648.328,-47
648.328,-44
648.328,-40
648.332,-41
648.332,-43
648.332,-35
648.332,-12
648.336,19
648.336,49
648.336,74
648.34,83
648.34,75
648.34,53
648.34,24
648.344,-4
648.344,-27
648.344,-41
648.348,-46
648.348,-45
648.348,-41
648.348,-40
648.352,-43
648.352,-39
648.352,-21
648.352,9
648.356,41
648.356,68
648.356,83
648.36,80
648.36,63
648.36,36
648.36,6
648.365,-20
648.365,-37
648.365,-45
648.369,-46
648.369,-43
648.369,-40
648.369,-43
648.373,-42
648.373,-29
648.373,-2
648.377,28
648.377,58
648.377,79
648.377,83
648.381,71
648.381,46
648.381,16
648.385,-11
648.385,-32
648.385,-44
648.385,-47
648.389,-44
648.389,-41
648.389,-42
648.393,-43
648.393,-35
648.393,-11
648.393,19
648.397,50
648.397,75
648.397,85
648.401,77
648.401,55
648.401,25
648.401,-3
648.406,-27
648.406,-41
648.406,-47
648.406,-46
648.41,-42
648.41,-42
648.41,-44
648.414,-40
648.414,-21
648.414,8
648.414,41
648.418,68
648.418,83
648.418,80
648.422,63
648.422,35
648.422,5
648.422,-19
648.426,-36
648.426,-44
648.426,-46
648.43,-42
648.43,-39
648.43,-42
648.43,-42
648.434,-29
648.434,-2
648.434,30
648.438,59
648.438,79
648.438,83
648.438,69
648.442,45
648.442,15
648.442,-11
648.446,-32
648.446,-43
648.446,-47
648.446,-44
648.451,-40
648.451,-41
648.451,-43
648.451,-34
648.455,-12
648.455,19
648.455,50
648.459,74
648.459,83
648.459,75
648.459,53
648.463,24
648.463,-4
648.463,-27
648.467,-41
648.467,-46
648.467,-44
648.467,-41
648.471,-40
648.471,-43
648.471,-39
648.475,-20
648.475,9
648.475,40
648.475,66
648.479,81
648.479,79
648.479,61
648.483,34
648.483,5
648.483,-19
648.483,-35
648.487,-44
648.487,-44
648.487,-41
648.492,-38
648.492,-40
648.492,-41
648.492,-28
648.496,-2
648.496,28
648.496,57
648.496,76
648.5,79
648.5,68
648.5,44
648.504,16
648.504,-10
648.504,-30
648.504,-41
648.508,-44
648.508,-42
648.508,-39
648.512,-40
648.512,-41
648.512,-33
648.512,-10
648.516,18
648.516,48
648.516,71
648.52,80
648.52,72
648.52,52
648.52,24
648.524,-3
648.524,-26
648.524,-39
648.528,-45
648.528,-44
648.528,-40
648.528,-40
648.532,-42
648.532,-37
648.532,-19
648.536,9
648.537,40
648.537,66
648.537,79
648.541,76
648.541,59
648.541,33
648.541,5
648.545,-18
648.545,-34
648.545,-43
648.549,-44
648.549,-40
648.549,-37
648.549,-40
648.553,-40
648.553,-28
648.553,-2
648.557,28
648.557,56
648.557,75
648.557,79
648.561,66
648.561,43
648.561,15
648.565,-11
648.565,-30
648.565,-41
648.565,-44
648.569,-42
648.569,-38
648.569,-39
648.573,-41
648.573,-32
648.573,-11
648.573,18
648.578,48
648.578,71
648.578,80
648.582,71
648.582,51
648.582,23
648.582,-4
648.586,-25
648.586,-38
648.586,-44
648.59,-43
648.59,-39
648.59,-39
648.59,-41
648.594,-38
648.594,-19
648.594,9
648.594,39
648.598,65
648.598,79
648.598,76
648.602,59
648.602,33
648.602,5
648.602,-19
648.606,-34
648.606,-42
648.606,-43
648.61,-40
648.61,-37
648.61,-40
648.61,-40
648.614,-28
648.614,-3
648.614,27
648.618,55
648.618,75
648.618,79
648.618,67
648.623,44
648.623,16
648.623,-10
648.627,-30
648.627,-41
648.627,-44
648.627,-42
648.631,-38
648.631,-39
648.631,-40
648.635,-33
648.635,-11
648.635,18
648.635,47
648.639,70
648.639,79
648.639,72
648.643,52
648.643,24
648.643,-3
648.643,-26
648.647,-39
648.647,-45
648.647,-43
648.647,-40
648.651,-39
648.651,-41
648.651,-38
648.655,-20
648.655,7
648.655,37
648.655,64
648.659,78
648.659,77
648.659,60
648.664,35
648.664,6
648.664,-18
648.664,-34
648.668,-42
648.668,-43
648.668,-40
648.672,-37
648.672,-39
648.672,-39
648.672,-28
648.676,-3
648.676,27
648.676,54
648.68,74
648.68,78
648.68,67
648.68,44
648.684,16
648.684,-10
648.684,-29
648.688,-41
648.688,-44
648.688,-42
648.688,-38
648.692,-39
648.692,-40
648.692,-33
648.692,-11
648.696,17
648.696,47
648.696,70
648.7,79
648.7,72
648.7,51
648.7,25
648.704,-3
648.704,-24
648.704,-38
648.709,-44
648.709,-43
648.709,-40
648.709,-40
648.713,-42
648.713,-37
648.713,-20
648.717,8
648.717,37
648.717,64
648.717,78
648.721,76
648.721,60
648.721,35
648.725,6
648.725,-16
648.725,-34
648.725,-42
648.729,-44
648.729,-40
648.729,-37
648.733,-40
648.733,-40
648.733,-28
648.733,-3
648.737,27
648.737,55
648.737,74
648.737,78
648.741,67
648.741,43
648.741,15
648.745,-10
648.745,-29
648.745,-41
648.745,-44
648.75,-42
648.75,-38
648.75,-38
648.754,-40
648.754,-33
648.754,-11
648.754,18
648.758,47
648.758,70
648.758,79
648.762,71
648.762,51
648.762,22
648.762,-4
648.766,-25
648.766,-38
648.766,-43
648.77,-43
648.77,-39
648.77,-38
648.77,-41
648.774,-37
648.774,-19
648.774,8
648.778,38
648.778,63
648.778,77
648.778,76
648.782,59
648.782,33
648.782,5
648.786,-18
648.786,-33
648.786,-42
648.786,-43
648.791,-40
648.791,-36
648.791,-38
648.791,-38
648.795,-27
648.795,-2
648.795,27
648.799,54
648.799,73
648.799,77
648.799,65
648.803,43
648.803,15
648.803,-10
648.807,-29
648.807,-40
648.807,-44
648.807,-41
648.811,-38
648.811,-38
648.811,-39
648.815,-32
648.815,-10
648.815,17
648.815,47
648.819,70
648.819,78
648.819,71
648.823,51
648.823,22
648.823,-5
648.823,-25
648.827,-38
648.827,-44
648.827,-43
648.831,-39
648.831,-38
648.831,-41
648.831,-36
648.836,-19
648.836,8
648.836,38
648.84,63
648.84,77
648.84,75
648.84,58
648.844,33
648.844,6
648.844,-17
648.844,-33
648.848,-42
648.848,-43
648.848,-39
648.852,-36
648.852,-38
648.852,-39
648.852,-27
648.856,-3
648.856,26
648.856,54
648.86,73
648.86,76
648.86,65
648.86,43
648.864,16
648.864,-9
648.864,-29
648.868,-40
648.868,-44
648.868,-41
648.868,-37
648.872,-37
648.872,-39
648.872,-31
648.877,-11
648.877,17
648.877,46
648.877,68
648.881,77
648.881,70
648.881,50
648.885,24
648.885,-4
648.885,-25
648.885,-38
648.889,-43
648.889,-43
648.889,-39
648.889,-39
648.893,-41
648.893,-36
648.893,-18
648.897,9
648.897,39
648.897,64
648.897,77
648.901,74
648.901,58
648.901,32
648.905,5
648.905,-18
648.905,-33
648.905,-40
648.909,-41
648.909,-39
648.909,-38
648.913,-40
648.913,-40
648.913,-27
648.913,-2
648.917,27
648.917,54
648.917,74
648.922,78
648.922,65
648.922,42
648.922,14
648.926,-10
648.926,-30
648.926,-40
648.93,-45
648.93,-41
648.93,-38
648.93,-38
648.934,-38
648.934,-30
648.934,-9
648.934,19
648.938,46
648.938,68
648.938,77
648.942,70
648.942,51
648.942,24
648.942,-3
648.946,-26
648.946,-38
648.946,-45
648.95,-46
648.95,-43
648.95,-40
648.95,-39
648.954,-34
648.954,-15
648.954,11
648.958,39
648.958,63
648.958,76
648.958,73
648.963,56
648.963,31
648.963,4
648.967,-17
648.967,-32
648.967,-39
648.967,-41
648.971,-37
648.971,-35
648.971,-39
648.975,-41
648.975,-28
648.975,-1
648.975,31
648.979,56
648.979,72
648.979,74
648.983,59
648.983,36
648.983,9
648.983,-11
648.987,-24
648.987,-33
648.987,-38
648.987,-38
648.991,-36
648.991,-36
648.991,-38
648.995,-31
648.995,-10
648.995,18
648.995,45
648.999,66
648.999,73
648.999,64
649.003,46
649.003,21
649.003,-5
649.003,-27
649.008,-41
649.008,-41
649.008,-36
649.012,-31
649.012,-34
649.012,-42
649.012,-41
649.016,-23
649.016,9
649.016,42
649.02,68
649.02,80
649.02,73
649.02,52
649.024,27
649.024,4
649.024,-13
649.028,-27
649.028,-36
649.028,-39
649.028,-38
649.032,-38
649.032,-42
649.032,-42
649.032,-30
649.036,-3
649.036,28
649.036,55
649.04,71
649.04,73
649.04,63
649.04,47
649.044,25
649.044,-2
649.044,-29
649.049,-48
649.049,-52
649.049,-47
649.049,-42
649.053,-41
649.053,-39
649.053,-28
649.057,-7
649.057,21
649.057,49
649.057,70
649.061,76
649.061,66
649.061,45
649.065,19
649.065,-4
649.065,-21
649.065,-32
649.069,-37
649.069,-38
649.069,-38
649.073,-39
649.073,-42
649.073,-35
649.073,-14
649.077,13
649.077,40
649.077,62
649.081,72
649.081,69
649.081,50
649.081,25
649.085,0
649.085,-19
649.085,-33
649.085,-40
649.089,-42
649.089,-38
649.089,-37
649.094,-38
649.094,-34
649.094,-20
649.094,4
649.098,29
649.098,53
649.098,71
649.102,75
649.102,66
649.102,45
649.102,14
649.106,-18
649.106,-44
649.106,-54
649.11,-48
649.11,-33
649.11,-21
649.11,-21
649.114,-28
649.114,-27
649.114,-10
649.118,16
649.118,44
649.118,64
649.118,71
649.122,62
649.122,45
649.122,22
649.126,-3
649.126,-25
649.126,-38
649.126,-40
649.13,-37
649.13,-35
649.13,-39
649.13,-43
649.135,-38
649.135,-18
649.135,11
649.139,41
649.139,66
649.139,76
649.139,69
649.143,51
649.143,26
649.143,2
649.147,-17
649.147,-29
649.147,-35
649.147,-39
649.151,-39
649.151,-37
649.151,-33
649.155,-29
649.155,-19
649.155,-4
649.155,16
649.159,40
649.159,65
649.159,79
649.163,73
649.163,49
649.163,15
649.163,-14
649.167,-36
649.167,-47
649.167,-46
649.171,-37
649.171,-26
649.171,-26
649.171,-31
649.175,-31
649.176,-15
649.176,10
649.18,40
649.18,67
649.18,79
649.18,74
649.184,52
649.184,19
649.184,-10
649.188,-33
649.188,-48
649.188,-53
649.188,-46
649.192,-35
649.192,-30
649.192,-29
649.192,-26
649.196,-10
649.196,15
649.196,43
649.2,64
649.2,77
649.2,71
649.2,50
649.204,20
649.204,-6
649.204,-22
649.208,-25
649.208,-28
649.208,-35
649.208,-37
649.212,-37
649.212,-41
649.212,-41
649.216,-25
649.216,2
649.216,31
649.216,52
649.221,62
649.221,63
649.221,56
649.225,40
649.225,19
649.225,-1
649.225,-21
649.229,-39
649.229,-50
649.229,-47
649.233,-37
649.233,-32
649.233,-30
649.233,-23
649.237,-6
649.237,19
649.237,44
649.237,63
649.241,72
649.241,70
649.241,57
649.245,30
649.245,-4
649.245,-37
649.245,-55
649.249,-56
649.249,-48
649.249,-39
649.253,-34
649.253,-32
649.253,-26
649.253,-11
649.257,12
649.257,39
649.257,64
649.261,77
649.261,74
649.261,55
649.262,29
649.266,4
649.266,-14
649.266,-27
649.27,-32
649.27,-36
649.27,-40
649.27,-42
649.274,-44
649.274,-45
649.274,-30
649.278,1
649.278,34
649.278,58
649.278,72
649.282,69
649.282,51
649.282,27
649.282,5
649.286,-13
649.286,-25
649.286,-29
649.29,-27
649.29,-26
649.29,-30
649.29,-43
649.294,-52
649.294,-42
649.294,-10
649.298,32
649.298,67
649.298,82
649.298,71
649.302,47
649.302,24
649.302,4
649.307,-6
649.307,-11
649.307,-16
649.307,-27
649.311,-38
649.311,-42
649.311,-40
649.315,-39
649.315,-37
649.315,-22
649.315,8
649.319,44
649.319,71
649.319,79
649.323,64
649.323,39
649.323,20
649.323,8
649.327,-5
649.327,-26
649.327,-46
649.331,-52
649.331,-44
649.331,-33
649.331,-31
649.335,-33
649.335,-21
649.335,2
649.335,27
649.339,48
649.339,64
649.339,75
649.343,71
649.343,43
649.343,0
649.343,-28
649.348,-38
649.348,-36
649.348,-28
649.352,-20
649.352,-22
649.352,-34
649.352,-48
649.356,-41
649.356,-12
649.356,28
649.36,65
649.36,89
649.36,89
649.36,61
649.364,15
649.364,-23
649.364,-43
649.368,-45
649.368,-32
649.368,-18
649.368,-9
649.372,-9
649.372,-24
649.372,-47
649.372,-57
649.376,-30
649.376,18
649.376,64
649.38,91
649.38,86
649.38,51
649.38,16
649.384,3
649.384,19
649.384,44
649.388,40
649.388,-10
649.388,-80
649.389,-111
649.393,-99
649.393,-80
649.393,-62
649.397,-33
649.397,2
649.397,44
649.397,82
649.401,103
649.401,107
649.401,89
649.405,44
649.405,-9
649.405,-40
649.405,-41
649.409,-26
649.409,-15
649.409,-14
649.413,-21
649.413,-27
649.413,-18
649.413,8
649.417,32
649.417,35
649.417,15
649.421,-6
649.421,-13
649.421,-11
649.421,-8
649.425,-2
649.425,7
649.425,15
649.425,11
649.429,-11
649.429,-39
649.429,-51
649.434,-36
649.434,-18
649.434,-21
649.434,-23
649.438,-10
649.438,23
649.438,86
649.442,151
649.442,180
649.442,146
649.442,50
649.446,-54
649.446,-117
649.446,-125
649.45,-96
649.45,-56
649.45,-30
649.45,-43
649.454,-82
649.454,-88
649.454,-37
649.458,40
649.458,98
649.458,121
649.458,123
649.462,107
649.462,56
649.462,-17
649.466,-69
649.466,-70
649.466,-35
649.466,4
649.47,24
649.47,14
649.47,-14
649.474,-39
649.474,-46
649.474,-38
649.474,-22
649.479,-2
649.479,33
649.479,67
649.483,69
649.483,51
649.483,33
649.483,12
649.487,0
649.487,6
649.487,14
649.487,4
649.491,-45
649.491,-124
649.491,-153
649.495,-92
649.495,5
649.495,66
649.495,75
649.499,68
649.499,77
649.499,86
649.503,67
649.503,30
649.503,-3
649.503,-24
649.507,-32
649.507,-36
649.507,-45
649.511,-52
649.511,-47
649.511,-33
649.511,-15
649.515,-2
649.515,6
649.515,15
649.52,25
649.52,35
649.52,45
649.52,55
649.524,59
649.524,53
649.524,33
649.528,0
649.528,-41
649.528,-68
649.528,-68
649.532,-53
649.532,-41
649.532,-33
649.532,-24
649.536,-9
649.536,15
649.536,44
649.54,66
649.54,82
649.54,96
649.54,83
649.544,25
649.544,-44
649.544,-76
649.548,-56
649.548,-25
649.548,-18
649.548,-28
649.552,-35
649.552,-37
649.552,-31
649.556,-6
649.556,30
649.556,58
649.556,58
649.56,33
649.56,2
649.56,-8
649.565,8
649.565,32
649.565,53
649.565,52
649.569,13
649.569,-45
649.569,-74
649.573,-58
649.573,-27
649.573,-16
649.573,-24
649.577,-26
649.577,-4
649.577,27
649.577,40
649.581,35
649.581,38
649.581,57
649.585,64
649.585,38
649.585,2
649.585,-20
649.589,-28
649.589,-28
649.589,-27
649.593,-25
649.593,-32
649.593,-60
649.593,-93
649.597,-91
649.597,-22
649.597,80
649.601,145
649.601,129
649.601,70
649.601,22
649.606,1
649.606,2
649.606,3
649.61,-15
649.61,-49
649.61,-67
649.61,-46
649.614,-6
649.614,4
649.614,-37
649.614,-83
649.618,-64
649.618,11
649.618,79
649.622,105
649.622,96
649.622,77
649.622,57
649.626,27
649.626,-20
649.626,-58
649.63,-42
649.63,0
649.63,5
649.63,-38
649.634,-93
649.634,-111
649.634,-71
649.638,-3
649.638,49
649.638,77
649.638,100
649.642,109
649.642,95
649.642,67
649.647,12
649.647,-76
649.647,-141
649.647,-129
649.651,-53
649.651,15
649.651,33
649.655,13
649.655,-6
649.655,-6
649.655,14
649.659,38
649.659,43
649.659,35
649.663,36
649.663,39
649.663,32
649.663,21
649.667,14
649.667,3
649.667,-12
649.671,-27
649.671,-43
649.671,-56
649.671,-51
649.675,-36
649.675,-29
649.675,-26
649.675,-10
649.679,21
649.679,40
649.679,44
649.683,57
649.683,63
649.683,47
649.683,15
649.687,-5
649.687,-12
649.687,-8
649.692,-5
649.692,-11
649.692,-33
649.692,-48
649.696,-38
649.696,-16
649.696,-11
649.7,-26
649.7,-25
649.7,16
649.7,64
649.704,85
649.704,80
649.704,58
649.708,29
649.708,0
649.708,-22
649.708,-36
649.712,-44
649.712,-57
649.712,-77
649.716,-81
649.716,-50
649.716,-6
649.716,26
649.72,52
649.72,82
649.72,104
649.724,103
649.724,80
649.724,38
649.724,-14
649.728,-58
649.728,-76
649.728,-74
649.728,-64
649.732,-55
649.732,-51
649.732,-49
649.737,-38
649.737,-12
649.737,26
649.737,76
649.741,116
649.741,127
649.741,107
649.745,60
649.745,-1
649.745,-61
649.745,-86
649.749,-65
649.749,-22
649.749,2
649.753,-1
649.753,-18
649.753,-39
649.753,-42
649.757,-17
649.757,18
649.757,41
649.761,48
649.761,53
649.761,54
649.761,44
649.765,23
649.765,-2
649.765,-19
649.769,-29
649.769,-36
649.769,-34
649.769,-16
649.773,8
649.773,7
649.773,-25
649.773,-46
649.778,-36
649.778,-8
649.778,17
649.782,25
649.782,31
649.782,46
649.782,57
649.786,45
649.786,16
649.786,-4
649.79,-8
649.79,0
649.79,-6
649.79,-47
649.794,-82
649.794,-76
649.794,-39
649.798,-5
649.798,14
649.798,33
649.798,56
649.802,79
649.802,87
649.802,75
649.806,52
649.806,28
649.806,-1
649.806,-38
649.81,-69
649.81,-84
649.81,-83
649.81,-60
649.814,-24
649.814,-1
649.814,0
649.818,-4
649.818,-11
649.818,2
649.819,50
649.823,96
649.823,101
649.823,77
649.827,59
649.827,37
649.827,-9
649.827,-54
649.831,-66
649.831,-60
649.831,-58
649.835,-62
649.835,-78
649.835,-75
649.835,-27
649.839,42
649.839,90
649.839,113
649.843,116
649.843,92
649.843,47
649.843,7
649.847,-23
649.847,-44
649.847,-43
649.847,-42
649.851,-50
649.851,-47
649.851,-41
649.855,-45
649.855,-54
649.855,-49
649.855,-19
649.859,29
649.859,86
649.859,124
649.864,108
649.864,48
649.864,-7
649.864,-11
649.868,23
649.868,42
649.868,14
649.872,-39
649.872,-76
649.872,-77
649.872,-62
649.876,-49
649.876,-32
649.876,-3
649.88,25
649.88,61
649.88,95
649.88,81
649.884,32
649.884,19
649.884,45
649.888,35
649.888,-27
649.888,-86
649.888,-99
649.892,-70
649.892,-29
649.892,-1
649.892,9
649.896,5
649.896,-7
649.896,-15
649.9,5
649.9,44
649.9,66
649.9,52
649.905,26
649.905,33
649.905,52
649.909,43
649.909,9
649.909,-24
649.909,-60
649.913,-81
649.913,-70
649.913,-53
649.917,-65
649.917,-80
649.917,-61
649.917,-10
649.921,66
649.921,157
649.921,198
649.925,156
649.925,64
649.925,-18
649.925,-60
649.929,-61
649.929,-50
649.929,-47
649.933,-50
649.933,-48
649.933,-36
649.933,-21
649.937,-10
649.937,0
649.937,5
649.937,18
649.941,58
649.941,105
649.941,124
649.945,97
649.945,25
649.946,-49
649.946,-88
649.95,-77
649.95,-39
649.95,-20
649.954,-42
649.954,-84
649.954,-91
649.954,-49
649.958,4
649.958,43
649.958,71
649.962,91
649.962,88
649.962,67
649.962,47
649.966,39
649.966,31
649.966,12
649.97,-16
649.97,-64
649.97,-111
649.97,-97
649.974,-34
649.974,2
649.974,-11
649.978,-31
649.978,-23
649.978,14
649.978,62
649.982,95
649.982,99
649.982,81
649.986,48
649.986,11
649.986,-18
649.986,-36
649.991,-41
649.991,-30
649.991,-26
649.995,-38
649.995,-52
649.995,-62
649.995,-73
649.999,-60
649.999,-4
649.999,65
650.003,108
650.003,115
650.003,100
650.003,76
650.007,47
650.007,-1
650.007,-59
650.007,-99
650.011,-95
650.011,-53
650.011,-10
650.015,-7
650.015,-32
650.015,-29
650.015,16
650.019,54
650.019,53
650.019,40
650.023,38
650.023,45
650.023,52
650.023,48
650.027,33
650.027,3
650.027,-38
650.031,-80
650.031,-104
650.031,-85
650.031,-32
650.036,0
650.036,-1
650.036,0
650.036,9
650.04,13
650.04,16
650.04,47
650.044,90
650.044,104
650.044,79
650.044,39
650.048,7
650.048,-12
650.048,-34
650.052,-59
650.052,-74
650.052,-75
650.052,-71
650.056,-64
650.056,-39
650.056,-3
650.06,29
650.06,58
650.06,83
650.06,94
650.064,89
650.064,62
650.064,31
650.068,10
650.068,-10
650.068,-44
650.068,-87
650.073,-111
650.073,-82
650.073,-24
650.073,1
650.077,-12
650.077,-28
650.077,-17
650.081,20
650.081,67
650.081,100
650.085,104
650.085,76
650.085,33
650.085,0
650.089,-17
650.089,-26
650.089,-33
650.089,-39
650.093,-38
650.093,-28
650.093,-26
650.097,-26
650.097,-24
650.097,-27
650.097,-21
650.101,16
650.101,71
650.101,103
650.105,99
650.105,64
650.105,14
650.105,-28
650.109,-49
650.109,-53
650.109,-47
650.113,-38
650.113,-33
650.113,-36
650.113,-40
650.117,-33
650.117,-7
650.117,27
650.122,58
650.122,81
650.122,93
650.122,90
650.126,58
650.126,4
650.126,-36
650.13,-49
650.13,-51
650.13,-59
650.13,-58
650.134,-42
650.134,-33
650.134,-35
650.134,-31
650.138,-9
650.138,24
650.138,54
650.142,75
650.142,85
650.142,79
650.142,62
650.146,36
650.146,7
650.146,-17
650.15,-35
650.15,-43
650.15,-46
650.15,-43
650.154,-40
650.154,-43
650.154,-42
650.159,-31
650.159,-10
650.159,16
650.159,47
650.163,78
650.163,92
650.163,80
650.167,47
650.167,8
650.167,-22
650.167,-38
650.171,-42
650.171,-43
650.171,-40
650.175,-35
650.175,-36
650.175,-38
650.175,-30
650.179,-11
650.179,17
650.179,47
650.183,69
650.183,78
650.183,71
650.183,51
650.187,23
650.187,-4
650.187,-25
650.187,-38
650.191,-44
650.191,-43
650.191,-41
650.195,-41
650.195,-40
650.195,-29
650.195,-13
650.199,5
650.199,31
650.199,63
650.203,88
650.203,90
650.203,68
650.203,34
650.208,-2
650.208,-32
650.208,-48
650.212,-54
650.212,-51
650.212,-40
650.212,-29
650.216,-30
650.216,-35
650.216,-26
650.22,-2
650.22,30
650.22,59
650.22,79
650.224,83
650.224,70
650.224,47
650.228,15
650.228,-16
650.228,-38
650.228,-49
650.232,-50
650.232,-45
650.232,-41
650.232,-40
650.236,-41
650.236,-33
650.236,-11
650.24,20
650.24,51
650.24,76
650.24,86
650.244,77
650.244,55
650.244,25
650.249,-2
650.249,-25
650.249,-39
650.249,-46
650.253,-47
650.253,-44
650.253,-44
650.257,-47
650.257,-42
650.257,-22
650.257,9
650.261,40
650.261,66
650.261,81
650.265,80
650.265,64
650.265,38
650.265,9
650.269,-16
650.269,-35
650.269,-44
650.273,-46
650.273,-42
650.273,-38
650.273,-41
650.277,-42
650.277,-31
650.277,-4
650.277,26
650.281,56
650.281,77
650.281,82
650.285,69
650.285,45
650.285,16
650.285,-10
650.29,-29
650.29,-41
650.29,-44
650.294,-43
650.294,-40
650.294,-41
650.294,-43
650.298,-34
650.298,-12
650.298,17
650.302,47
650.302,70
650.302,80
650.302,73
650.306,54
650.306,26
650.306,-1
650.31,-23
650.31,-37
650.31,-43
650.31,-42
650.314,-39
650.314,-40
650.314,-46
650.318,-44
650.318,-26
650.318,5
650.318,39
650.322,67
650.322,83
650.322,81
650.326,63
650.326,36
650.326,6
650.326,-18
650.331,-35
650.331,-45
650.331,-45
650.331,-41
650.335,-37
650.335,-39
650.335,-40
650.339,-28
650.339,-2
650.339,28
650.339,57
650.343,77
650.343,81
650.343,69
650.347,45
650.347,16
650.347,-11
650.347,-33
650.351,-44
650.351,-47
650.351,-45
650.355,-41
650.355,-42
650.355,-42
650.355,-34
650.359,-12
650.359,19
650.359,50
650.363,74
650.363,84
650.363,76
650.363,55
650.367,25
650.367,-3
650.367,-27
650.371,-42
650.371,-47
650.371,-46
650.371,-42
650.376,-42
650.376,-44
650.376,-40
650.376,-22
650.38,8
650.38,40
650.38,67
650.384,84
650.384,82
650.384,64
650.384,37
650.388,7
650.388,-19
650.388,-36
650.392,-44
650.392,-45
650.392,-42
650.392,-39
650.396,-41
650.396,-42
650.396,-31
650.4,-5
650.4,26
650.4,55
650.4,76
650.404,82
650.404,71
650.404,47
650.408,18
650.408,-9
650.408,-31
650.408,-43
650.412,-46
650.412,-43
650.412,-40
650.417,-39
650.417,-42
650.417,-35
650.417,-14
650.421,15
650.421,48
650.421,72
650.421,83
650.425,76
650.425,55
650.425,27
650.429,-3
650.429,-26
650.429,-40
650.429,-45
650.433,-46
650.433,-42
650.433,-41
650.437,-43
650.437,-39
650.437,-21
650.437,7
650.441,39
650.441,66
650.441,81
650.445,80
650.445,64
650.445,37
650.445,8
650.449,-17
650.449,-34
650.449,-44
650.453,-47
650.453,-43
650.453,-40
650.453,-40
650.457,-41
650.457,-31
650.457,-6
650.462,26
650.462,56
650.462,79
650.462,85
650.466,73
650.466,49
650.466,17
650.466,-11
650.47,-32
650.47,-44
650.47,-48
650.474,-46
650.474,-42
650.474,-41
650.474,-43
650.478,-35
650.478,-15
650.478,15
650.482,47
650.482,73
650.482,84
650.482,78
650.486,57
650.486,27
650.486,-2
650.49,-25
650.49,-39
650.49,-46
650.49,-45
650.494,-41
650.494,-40
650.494,-43
650.498,-40
650.498,-24
650.498,4
650.498,37
650.503,65
650.503,82
650.503,81
650.507,65
650.507,38
650.507,9
650.507,-17
650.511,-35
650.511,-44
650.511,-47
650.515,-43
650.515,-39
650.515,-41
650.515,-41
650.519,-28
650.519,-3
650.519,27
650.519,55
650.523,75
650.523,80
650.523,69
650.527,46
650.527,17
650.527,-10
650.527,-30
650.531,-43
650.531,-47
650.531,-44
650.535,-40
650.535,-41
650.535,-42
650.535,-35
650.539,-14
650.539,16
650.539,47
650.543,72
650.543,82
650.543,75
650.543,54
650.548,27
650.548,-2
650.548,-25
650.552,-40
650.552,-46
650.552,-45
650.552,-40
650.556,-39
650.556,-42
650.556,-39
650.56,-22
650.56,7
650.56,39
650.56,66
650.564,81
650.564,80
650.564,63
650.568,37
650.568,6
650.568,-18
650.568,-36
650.572,-45
650.572,-47
650.572,-43
650.572,-39
650.576,-40
650.576,-40
650.576,-29
650.58,-3
650.58,28
650.58,57
650.58,78
650.584,83
650.584,70
650.584,46
650.589,16
650.589,-11
650.589,-32
650.589,-43
650.593,-47
650.593,-44
650.593,-40
650.597,-41
650.597,-42
650.597,-34
650.597,-12
650.601,18
650.601,49
650.601,73
650.605,83
650.605,75
650.605,53
650.605,25
650.609,-3
650.609,-27
650.609,-42
650.613,-47
650.613,-46
650.613,-41
650.613,-39
650.617,-42
650.617,-38
650.617,-21
650.617,7
650.621,38
650.621,66
650.621,83
650.625,81
650.625,63
650.625,37
650.625,6
650.629,-19
650.63,-36
650.63,-44
650.634,-46
650.634,-42
650.634,-38
650.634,-40
650.638,-40
650.638,-29
650.638,-3
650.642,27
650.642,57
650.642,78
650.642,82
650.646,70
650.646,46
650.646,16
650.65,-12
650.65,-32
650.65,-43
650.65,-46
650.654,-44
650.654,-39
650.654,-40
650.658,-42
650.658,-35
650.658,-13
650.658,17
650.662,49
650.662,73
650.662,83
650.666,75
650.666,53
650.666,24
650.666,-4
650.67,-26
650.67,-40
650.67,-46
650.67,-45
650.674,-41
650.674,-39
650.674,-41
650.679,-38
650.679,-21
650.679,8
650.679,38
650.683,66
650.683,81
650.683,80
650.687,63
650.687,35
650.687,5
650.687,-19
650.691,-37
650.691,-45
650.691,-47
650.695,-42
650.695,-38
650.695,-39
650.695,-40
650.699,-28
650.699,-3
650.699,28
650.703,57
650.703,78
650.703,82
650.703,69
650.707,45
650.707,16
650.707,-12
650.711,-32
650.711,-44
650.711,-48
650.711,-44
650.716,-39
650.716,-39
650.716,-40
650.716,-34
650.72,-12
650.72,17
650.72,48
650.724,72
650.724,82
650.724,75
650.724,53
650.728,24
650.728,-5
650.728,-27
650.732,-41
650.732,-45
650.732,-45
650.732,-40
650.736,-39
650.736,-41
650.736,-38
650.74,-21
650.74,8
650.74,38
650.74,66
650.744,81
650.744,79
650.744,62
650.748,35
650.748,6
650.748,-18
650.748,-36
650.753,-44
650.753,-46
650.753,-42
650.756,-38
650.756,-40
650.756,-40
650.756,-28
650.761,-3
650.761,28
650.761,57
650.761,77
650.765,82
650.765,70
650.765,45
650.769,16
650.769,-11
650.769,-32
650.769,-44
650.773,-48
650.773,-44
650.773,-40
650.777,-40
650.777,-41
650.777,-34
650.777,-12
650.781,18
650.781,48
650.781,72
650.785,83
650.785,76
650.785,53
650.785,24
650.789,-5
650.789,-27
650.789,-41
650.793,-46
650.793,-46
650.793,-41
650.793,-39
650.797,-40
650.797,-38
650.797,-21
650.801,8
650.802,39
650.802,65
650.802,80
650.806,79
650.806,63
650.806,36
650.806,6
650.81,-18
650.81,-36
650.81,-45
650.814,-46
650.814,-42
650.814,-38
650.814,-38
650.818,-39
650.818,-28
650.818,-2
650.822,29
650.822,58
650.822,78
650.822,81
650.826,68
650.826,44
650.826,15
650.83,-12
650.83,-32
650.83,-44
650.83,-48
650.834,-45
650.834,-41
650.834,-40
650.838,-41
650.838,-33
650.838,-11
650.838,18
650.842,49
650.842,73
650.842,83
650.847,75
650.847,53
650.847,23
650.847,-5
650.851,-27
650.851,-41
650.851,-45
650.855,-45
650.855,-40
650.855,-39
650.855,-41
650.859,-38
650.859,-21
650.859,8
650.859,39
650.863,66
650.863,82
650.863,79
650.867,62
650.867,34
650.867,4
650.867,-20
650.871,-37
650.871,-45
650.871,-45
650.875,-42
650.875,-38
650.875,-39
650.875,-39
650.879,-27
650.879,-2
650.879,28
650.883,56
650.883,76
650.883,81
650.883,69
650.888,44
650.888,14
650.888,-12
650.892,-31
650.892,-42
650.892,-46
650.892,-44
650.896,-39
650.896,-39
650.896,-41
650.9,-33
650.9,-12
650.9,18
650.9,49
650.904,73
650.904,83
650.904,74
650.908,52
650.908,23
650.908,-5
650.908,-27
650.912,-41
650.912,-46
650.912,-45
650.912,-40
650.916,-38
650.916,-40
650.916,-36
650.92,-19
650.92,8
650.92,39
650.92,66
650.924,80
650.924,79
650.924,61
650.928,33
650.928,4
650.928,-20
650.928,-36
650.933,-44
650.933,-45
650.933,-41
650.937,-38
650.937,-38
650.937,-39
650.937,-26
650.941,-2
650.941,28
650.941,57
650.945,76
650.945,80
650.945,68
650.945,44
650.949,15
650.949,-11
650.949,-32
650.953,-43
650.953,-47
650.953,-44
650.953,-39
650.957,-38
650.957,-39
650.957,-32
650.957,-11
650.961,19
650.961,48
650.961,72
650.965,82
650.965,74
650.965,52
650.965,23
650.969,-5
650.969,-27
650.969,-41
650.974,-46
650.974,-45
650.974,-40
650.974,-38
650.978,-41
650.978,-36
650.978,-19
650.982,9
650.982,40
650.982,66
650.982,79
650.986,77
650.986,60
650.986,34
650.99,4
650.99,-19
650.99,-36
650.99,-44
650.994,-45
650.994,-40
650.994,-37
650.998,-38
650.998,-39
650.998,-26
650.998,-1
651.002,28
651.002,56
651.002,75
651.002,79
651.006,67
651.006,44
651.006,14
651.01,-12
651.01,-32
651.01,-43
651.01,-46
651.014,-43
651.014,-39
651.014,-39
651.019,-39
651.019,-32
651.019,-10
651.019,19
651.023,49
651.023,72
651.023,80
651.027,72
651.027,51
651.027,22
651.027,-5
651.031,-28
651.031,-40
651.031,-45
651.035,-43
651.035,-40
651.035,-38
651.035,-39
651.039,-36
651.039,-18
651.039,8
651.043,39
651.043,64
651.043,79
651.043,77
651.047,60
651.047,33
651.047,4
651.051,-20
651.051,-37
651.051,-44
651.051,-45
651.055,-41
651.055,-36
651.055,-37
651.055,-37
651.06,-26
651.06,-2
651.06,27
651.064,55
651.064,75
651.064,80
651.064,68
651.068,44
651.068,14
651.068,-12
651.072,-32
651.072,-42
651.072,-45
651.072,-43
651.076,-38
651.076,-38
651.076,-39
651.08,-32
651.08,-10
651.08,19
651.08,49
651.084,72
651.084,80
651.084,72
651.088,51
651.088,21
651.088,-5
651.088,-28
651.092,-40
651.092,-45
651.092,-43
651.096,-40
651.096,-38
651.096,-39
651.096,-35
651.1,-19
651.1,8
651.1,39
651.1,64
651.105,79
651.105,77
651.105,60
651.109,33
651.109,4
651.109,-20
651.109,-37
651.113,-44
651.113,-45
651.113,-40
651.117,-35
651.117,-37
651.117,-37
651.117,-26
651.121,-2
651.121,27
651.121,55
651.125,74
651.125,79
651.125,68
651.125,44
651.129,15
651.129,-12
651.129,-33
651.133,-44
651.133,-46
651.133,-43
651.133,-38
651.137,-37
651.137,-39
651.137,-31
651.141,-10
651.141,18
651.141,48
651.141,70
651.146,80
651.146,72
651.146,52
651.15,23
651.15,-4
651.15,-26
651.15,-40
651.154,-46
651.154,-44
651.154,-39
651.154,-37
651.158,-39
651.158,-36
651.158,-19
651.162,9
651.162,39
651.162,65
651.162,80
651.166,77
651.166,60
651.166,33
651.17,4
651.17,-20
651.17,-36
651.17,-44
651.174,-46
651.174,-41
651.174,-36
651.178,-37
651.178,-37
651.178,-26
651.178,-1
651.182,28
651.182,56
651.182,74
651.186,78
651.186,67
651.186,43
651.186,14
651.191,-12
651.191,-32
651.191,-44
651.195,-47
651.195,-43
651.195,-38
651.195,-37
651.199,-39
651.199,-32
651.199,-11
651.199,17
651.203,47
651.203,71
651.203,80
651.207,73
651.207,52
651.207,23
651.207,-4
651.211,-26
651.211,-40
651.211,-45
651.215,-43
651.215,-39
651.215,-37
651.215,-39
651.219,-36
651.219,-20
651.219,7
651.223,38
651.223,63
651.223,79
651.223,77
651.227,60
651.227,34
651.227,4
651.232,-20
651.232,-36
651.232,-43
651.232,-44
651.236,-40
651.236,-35
651.236,-36
651.24,-37
651.24,-27
651.24,-3
651.24,26
651.244,54
651.244,73
651.244,78
651.244,67
651.248,43
651.248,15
651.248,-12
651.252,-32
651.252,-43
651.252,-46
651.252,-43
651.256,-38
651.256,-38
651.256,-39
651.26,-32
651.26,-11
651.26,17
651.26,47
651.264,70
651.264,81
651.264,74
651.268,53
651.268,24
651.268,-4
651.268,-26
651.273,-39
651.273,-45
651.273,-44
651.277,-40
651.277,-37
651.277,-38
651.277,-36
651.281,-20
651.281,6
651.281,37
651.285,64
651.285,79
651.285,77
651.285,61
651.289,34
651.289,4
651.289,-20
651.293,-36
651.293,-44
651.293,-45
651.293,-40
651.297,-37
651.297,-38
651.297,-38
651.297,-27
651.301,-2
651.301,28
651.301,56
651.305,75
651.305,79
651.305,68
651.305,44
651.309,16
651.309,-11
651.309,-31
651.313,-43
651.313,-46
651.313,-44
651.313,-39
651.318,-38
651.318,-39
651.318,-32
651.322,-11
651.322,16
651.322,46
651.322,70
651.326,81
651.326,74
651.326,53
651.33,24
651.33,-4
651.33,-26
651.33,-39
651.334,-45
651.334,-44
651.334,-40
651.338,-37
651.338,-38
651.338,-36
651.338,-20
651.342,7
651.342,37
651.342,63
651.342,78
651.346,77
651.346,61
651.346,34
651.35,5
651.35,-18
651.35,-35
651.35,-43
651.354,-44
651.354,-41
651.354,-37
651.359,-38
651.359,-38
651.359,-27
651.359,-3
651.363,27
651.363,54
651.363,74
651.367,79
651.367,68
651.367,45
651.367,17
651.371,-10
651.371,-31
651.371,-42
651.375,-47
651.375,-45
651.375,-40
651.375,-38
651.379,-39
651.379,-32
651.379,-12
651.383,16
651.383,47
651.383,70
651.383,81
651.387,74
651.387,53
651.387,24
651.387,-3
651.391,-26
651.391,-40
651.391,-45
651.395,-44
651.395,-39
651.395,-36
651.395,-39
651.399,-36
651.399,-21
651.399,6
651.404,37
651.404,63
651.404,78
651.404,78
651.408,61
651.408,35
651.408,6
651.412,-19
651.412,-35
651.412,-44
651.412,-45
651.416,-41
651.416,-36
651.416,-37
651.42,-39
651.42,-28
651.42,-3
651.42,27
651.424,55
651.424,74
651.424,80
651.428,68
651.428,45
651.428,16
651.428,-11
651.432,-31
651.432,-42
651.432,-46
651.436,-44
651.436,-39
651.436,-38
651.436,-40
651.44,-33
651.44,-13
651.44,16
651.44,46
651.444,71
651.444,81
651.444,75
651.449,54
651.449,25
651.449,-3
651.449,-26
651.453,-40
651.453,-45
651.453,-45
651.457,-40
651.457,-37
651.457,-39
651.457,-37
651.461,-21
651.461,6
651.461,37
651.465,63
651.465,79
651.465,78
651.465,62
651.469,35
651.469,6
651.469,-19
651.473,-36
651.473,-43
651.473,-44
651.473,-41
651.477,-37
651.477,-37
651.477,-37
651.481,-27
651.481,-3
651.481,26
651.481,55
651.485,74
651.485,79
651.485,68
651.485,44
651.49,16
651.49,-11
651.49,-31
651.494,-42
651.494,-46
651.494,-43
651.494,-39
651.498,-38
651.498,-40
651.498,-33
651.502,-13
651.502,16
651.502,46
651.502,70
651.506,81
651.506,75
651.506,54
651.51,26
651.51,-2
651.51,-26
651.51,-40
651.514,-46
651.514,-45
651.514,-40
651.518,-37
651.518,-38
651.518,-37
651.518,-22
651.522,5
651.522,36
651.522,63
651.526,79
651.526,79
651.526,63
651.526,37
651.531,7
651.531,-18
651.531,-36
651.531,-44
651.535,-46
651.535,-42
651.535,-37
651.539,-38
651.539,-38
651.539,-28
651.539,-4
651.543,25
651.543,54
651.543,75
651.547,81
651.547,70
651.547,47
651.547,17
651.551,-10
651.551,-31
651.551,-44
651.555,-47
651.555,-44
651.555,-39
651.555,-38
651.559,-39
651.559,-33
651.559,-14
651.563,15
651.563,44
651.563,69
651.563,82
651.567,76
651.567,56
651.567,27
651.571,-1
651.571,-25
651.571,-40
651.572,-46
651.576,-45
651.576,-40
651.576,-36
651.58,-38
651.58,-37
651.58,-22
651.58,4
651.584,35
651.584,62
651.584,79
651.584,80
651.588,65
651.588,38
651.588,7
651.592,-18
651.592,-36
651.592,-45
651.592,-46
651.596,-42
651.596,-38
651.596,-38
651.6,-39
651.6,-29
651.6,-5
651.6,24
651.604,53
651.604,74
651.604,81
651.608,70
651.608,47
651.608,18
651.608,-9
651.612,-31
651.612,-43
651.612,-47
651.617,-44
651.617,-39
651.617,-38
651.617,-40
651.621,-35
651.621,-16
651.621,13
651.625,44
651.625,70
651.625,82
651.625,77
651.629,57
651.629,28
651.629,0
651.629,-24
651.633,-38
651.633,-45
651.633,-45
651.637,-41
651.637,-38
651.637,-38
651.637,-37
651.641,-23
651.641,3
651.641,33
651.645,61
651.645,78
651.645,80
651.645,66
651.649,39
651.649,10
651.649,-17
651.653,-35
651.653,-45
651.653,-47
651.653,-43
651.658,-38
651.658,-38
651.658,-39
651.662,-29
651.662,-5
651.662,24
651.662,53
651.666,74
651.666,81
651.666,71
651.67,48
651.67,19
651.67,-10
651.67,-31
651.674,-43
651.674,-47
651.674,-44
651.678,-39
651.678,-39
651.678,-40
651.678,-34
651.682,-14
651.682,14
651.682,45
651.682,70
651.686,82
651.686,76
651.686,55
651.69,27
651.69,-2
651.69,-25
651.69,-39
651.694,-44
651.694,-44
651.694,-39
651.698,-38
651.698,-39
651.698,-37
651.698,-22
651.703,5
651.703,36
651.703,62
651.707,78
651.707,78
651.707,63
651.707,37
651.711,8
651.711,-18
651.711,-35
651.715,-43
651.715,-45
651.715,-42
651.715,-38
651.719,-38
651.719,-38
651.719,-29
651.719,-6
651.723,25
651.723,52
651.723,74
651.727,80
651.727,70
651.727,47
651.731,18
651.731,-9
651.731,-31
651.731,-43
651.735,-46
651.735,-43
651.735,-38
651.735,-38
651.739,-40
651.739,-35
651.739,-15
651.744,14
651.744,44
651.744,68
651.744,80
651.748,75
651.748,56
651.748,27
651.752,-1
651.752,-24
651.752,-38
651.752,-45
651.756,-45
651.756,-39
651.756,-35
651.76,-37
651.76,-37
651.76,-23
651.76,4
651.764,34
651.764,61
651.764,78
651.768,79
651.768,63
651.768,37
651.768,8
651.772,-18
651.772,-35
651.772,-44
651.776,-46
651.776,-42
651.776,-37
651.776,-37
651.78,-38
651.78,-28
651.78,-5
651.78,24
651.784,53
651.784,74
651.784,80
651.789,70
651.789,47
651.789,18
651.789,-9
651.793,-31
651.793,-43
651.793,-46
651.797,-44
651.797,-39
651.797,-37
651.797,-39
651.801,-35
651.801,-15
651.801,12
651.805,43
651.805,68
651.805,81
651.805,76
651.809,57
651.809,29
651.809,0
651.813,-23
651.813,-39
651.813,-46
651.813,-45
651.817,-40
651.817,-36
651.817,-38
651.817,-36
651.821,-23
651.821,2
651.821,33
651.825,60
651.825,78
651.825,79
651.825,65
651.829,40
651.829,10
651.83,-16
651.834,-35
651.834,-44
651.834,-46
651.834,-43
651.838,-39
651.838,-39
651.838,-39
651.842,-29
651.842,-6
651.842,23
651.842,52
651.846,74
651.846,82
651.846,72
651.85,48
651.85,19
651.85,-8
651.85,-30
651.854,-42
651.854,-46
651.854,-45
651.858,-40
651.858,-39
651.858,-40
651.858,-35
651.862,-15
651.862,13
651.862,44
651.866,69
651.866,81
651.866,76
651.866,57
651.87,28
651.87,0
651.87,-24
651.875,-38
651.875,-45
651.875,-44
651.875,-40
651.879,-36
651.879,-38
651.879,-37
651.879,-24
651.883,2
651.883,33
651.883,60
651.887,77
651.887,80
651.887,65
651.887,40
651.891,10
651.891,-16
651.891,-34
651.895,-44
651.895,-47
651.895,-42
651.895,-38
651.899,-38
651.899,-39
651.899,-30
651.903,-6
651.903,22
651.903,51
651.903,73
651.907,81
651.907,71
651.907,49
651.911,20
651.911,-8
651.911,-29
651.911,-42
651.916,-46
651.916,-44
651.916,-39
651.92,-38
651.92,-40
651.92,-35
651.92,-17
651.924,12
651.924,43
651.924,68
651.924,81
651.928,76
651.928,57
651.928,29
651.932,0
651.932,-23
651.932,-38
651.932,-45
651.936,-46
651.936,-40
651.936,-36
651.94,-38
651.94,-37
651.94,-24
651.94,2
651.944,33
651.944,60
651.944,77
651.948,80
651.948,66
651.948,40
651.948,10
651.952,-16
651.952,-35
651.952,-44
651.957,-47
651.957,-43
651.957,-38
651.957,-38
651.961,-38
651.961,-29
651.961,-7
651.965,22
651.965,51
651.965,73
651.965,80
651.969,70
651.969,48
651.969,20
651.969,-7
651.973,-28
651.973,-41
651.973,-45
651.977,-44
651.977,-39
651.977,-38
651.977,-40
651.981,-36
651.981,-17
651.981,11
651.985,42
651.985,69
651.985,81
651.985,77
651.989,58
651.989,30
651.989,0
651.993,-22
651.993,-39
651.993,-45
651.993,-46
651.997,-41
651.997,-37
651.997,-38
652.002,-38
652.002,-24
652.002,1
652.002,32
652.006,60
652.006,78
652.006,80
652.01,66
652.01,40
652.01,11
652.01,-15
652.014,-34
652.014,-44
652.014,-47
652.018,-43
652.018,-39
652.018,-39
652.018,-40
652.022,-30
652.022,-7
652.022,23
652.022,53
652.026,74
652.026,82
652.026,72
652.03,50
652.03,20
652.03,-8
652.03,-30
652.034,-42
652.034,-47
652.034,-44
652.038,-40
652.038,-39
652.038,-40
652.038,-36
652.042,-17
652.042,11
652.042,42
652.047,68
652.047,82
652.047,78
652.047,57
652.051,30
652.051,1
652.051,-23
652.055,-38
652.055,-45
652.055,-45
652.055,-42
652.059,-37
652.059,-38
652.059,-38
652.063,-24
652.063,1
652.063,33
652.063,60
652.067,78
652.067,81
652.067,66
652.071,41
652.071,10
652.071,-16
652.071,-36
652.075,-45
652.075,-47
652.075,-43
652.075,-38
652.079,-39
652.079,-39
652.079,-30
652.083,-6
652.083,23
652.083,52
652.083,74
652.088,81
652.088,72
652.088,50
652.092,20
652.092,-8
652.092,-30
652.092,-42
652.096,-47
652.096,-44
652.096,-40
652.1,-39
652.1,-40
652.1,-35
652.1,-17
652.104,12
652.104,43
652.104,68
652.108,82
652.108,77
652.108,58
652.108,29
652.112,0
652.112,-24
652.112,-39
652.116,-45
652.116,-44
652.116,-40
652.116,-37
652.12,-39
652.12,-38
652.12,-24
652.12,2
652.124,33
652.124,61
652.124,78
652.128,80
652.128,66
652.129,40
652.129,10
652.133,-17
652.133,-35
652.133,-45
652.137,-46
652.137,-43
652.137,-38
652.137,-39
652.141,-39
652.141,-29
652.141,-6
652.145,23
652.145,52
652.145,74
652.145,82
652.149,72
652.149,48
652.149,19
652.153,-9
652.153,-31
652.153,-43
652.153,-46
652.157,-44
652.157,-39
652.157,-38
652.161,-40
652.161,-35
652.161,-16
652.161,13
652.165,43
652.165,69
652.165,82
652.169,77
652.169,57
652.169,29
652.169,0
652.174,-23
652.174,-39
652.174,-45
652.174,-45
652.178,-41
652.178,-37
652.178,-39
652.182,-38
652.182,-24
652.182,2
652.182,34
652.186,61
652.186,78
652.186,79
652.19,65
652.19,40
652.19,10
652.19,-16
652.194,-35
652.194,-44
652.194,-47
652.198,-43
652.198,-38
652.198,-39
652.198,-39
652.202,-29
652.202,-6
652.202,23
652.206,52
652.206,75
652.206,82
652.206,71
652.21,49
652.21,19
652.21,-8
652.214,-30
652.215,-42
652.215,-47
652.215,-45
652.219,-40
652.219,-39
652.219,-40
652.219,-35
652.223,-16
652.223,12
652.223,43
652.227,69
652.227,82
652.227,78
652.227,58
652.231,29
652.231,0
652.231,-23
652.235,-40
652.235,-46
652.235,-46
652.235,-41
652.239,-37
652.239,-38
652.239,-37
652.243,-24
652.243,2
652.243,33
652.243,60
652.247,78
652.247,80
652.247,66
652.251,40
652.251,10
652.251,-16
652.251,-35
652.255,-44
652.255,-47
652.255,-43
652.26,-38
652.26,-38
652.26,-39
652.26,-29
652.264,-6
652.264,23
652.264,52
652.268,74
652.268,81
652.268,72
652.268,49
652.272,19
652.272,-8
652.272,-31
652.272,-43
652.276,-46
652.276,-44
652.276,-39
652.28,-37
652.28,-40
652.28,-35
652.28,-16
652.284,12
652.284,43
652.284,69
652.288,82
652.288,77
652.288,57
652.288,28
652.292,0
652.292,-24
652.292,-38
652.296,-45
652.296,-45
652.296,-41
652.296,-37
652.301,-38
652.301,-37
652.301,-23
652.305,2
652.305,34
652.305,61
652.305,79
652.309,80
652.309,65
652.309,39
652.309,8
652.313,-18
652.313,-36
652.313,-45
652.317,-45
652.317,-42
652.317,-36
652.317,-36
652.321,-38
652.321,-30
652.321,-9
652.325,20
652.325,50
652.325,73
652.325,82
652.329,73
652.329,50
652.329,21
652.333,-8
652.333,-30
652.333,-41
652.333,-45
652.337,-44
652.337,-39
652.337,-38
652.341,-39
652.341,-35
652.341,-18
652.341,11
652.346,41
652.346,67
652.346,81
652.35,77
652.35,58
652.35,31
652.35,1
652.354,-23
652.354,-38
652.354,-44
652.358,-45
652.358,-40
652.358,-37
652.358,-38
652.362,-37
652.362,-24
652.362,1
652.362,32
652.366,60
652.366,77
652.366,80
652.37,66
652.37,41
652.37,11
652.37,-15
652.374,-34
652.374,-44
652.374,-46
652.378,-44
652.378,-39
652.378,-39
652.378,-39
652.382,-31
652.382,-7
652.382,22
652.387,51
652.387,73
652.387,82
652.387,72
652.391,50
652.391,20
652.391,-7
652.395,-29
652.395,-43
652.395,-47
652.395,-44
652.399,-40
652.399,-39
652.399,-40
652.403,-36
652.403,-17
652.403,10
652.403,42
652.407,67
652.407,81
652.407,78
652.411,60
652.411,32
652.411,2
652.411,-22
652.415,-39
652.415,-46
652.415,-45
652.415,-39
652.419,-36
652.419,-38
652.419,-38
652.423,-26
652.423,0
652.423,30
652.423,57
652.427,76
652.427,79
652.427,68
652.432,44
652.432,14
652.432,-12
652.432,-33
652.436,-44
652.436,-47
652.436,-44
652.44,-39
652.44,-39
652.44,-40
652.44,-32
652.444,-9
652.444,21
652.444,51
652.448,74
652.448,82
652.448,72
652.448,50
652.452,21
652.452,-6
652.452,-28
652.456,-41
652.456,-45
652.456,-44
652.456,-40
652.46,-38
652.46,-41
652.46,-36
652.46,-19
652.464,10
652.464,41
652.464,67
652.468,81
652.468,78
652.468,60
652.468,32
652.473,1
652.473,-22
652.473,-38
652.477,-45
652.477,-45
652.477,-40
652.477,-37
652.481,-39
652.481,-38
652.481,-25
652.485,0
652.485,30
652.485,59
652.485,77
652.489,81
652.489,68
652.489,42
652.493,12
652.493,-14
652.493,-34
652.493,-45
652.497,-46
652.497,-43
652.497,-38
652.501,-39
652.501,-40
652.501,-31
652.501,-9
652.505,20
652.505,49
652.505,72
652.505,81
652.509,72
652.509,52
652.509,23
652.513,-5
652.513,-28
652.513,-42
652.513,-46
652.518,-45
652.518,-40
652.518,-38
652.522,-40
652.522,-36
652.522,-19
652.522,9
652.526,40
652.526,66
652.526,80
652.53,78
652.53,60
652.53,33
652.53,4
652.534,-20
652.534,-36
652.534,-44
