Program Time [s],data 0,data 1
41.3589,1,1
41.3589,2,2
41.363,2,2
41.363,3,3
41.3673,2,2
41.3673,2,2
41.3714,2,2
41.3714,1,1
41.3714,0,0
41.3754,0,0
41.3754,1,1
41.3794,0,1
41.3794,1,1
41.3794,1,1
41.3836,2,2
41.3836,3,3
41.3877,3,2
41.3877,2,1
41.3918,1,1
41.3918,1,1
41.3918,1,0
41.3958,0,0
41.3958,0,0
41.4,0,2
41.4,3,3
41.4041,4,3
41.4041,2,1
41.4041,1,1
41.4081,1,2
41.4081,2,1
41.4122,0,0
41.4122,0,0
41.4164,1,1
41.4164,1,1
41.4164,1,1
41.4205,2,2
41.4205,2,3
41.4246,3,3
41.4246,3,3
41.4286,2,1
41.4286,1,0
41.4286,1,2
41.4328,3,2
41.4328,0,0
41.4369,0,0
41.4369,0,0
41.4409,0,1
41.4409,2,3
41.441,3,2
41.445,2,3
41.445,3,3
41.4491,2,2
41.4491,2,1
41.4531,1,1
41.4531,0,0
41.4532,0,1
41.4573,0,0
41.4573,0,2
41.4613,2,3
41.4613,2,2
41.4614,2,2
41.4655,3,3
41.4656,2,2
41.4696,2,1
41.4696,1,0
41.4736,0,0
41.4736,1,1
41.4737,1,1
41.4777,1,1
41.4777,0,1
41.4818,1,2
41.4818,3,3
41.4859,3,2
41.4859,1,1
41.4859,2,3
41.49,3,2
41.49,0,0
41.4941,0,0
41.4941,0,0
41.4982,1,1
41.4982,1,1
41.4982,1,1
41.5023,1,2
41.5023,2,3
41.5064,3,3
41.5064,2,2
41.5105,3,3
41.5105,1,0
41.5105,0,1
41.5146,0,0
41.5146,0,0
41.5187,1,1
41.5187,1,2
41.5228,2,3
41.5228,3,3
41.5228,1,1
41.5268,2,2
41.5268,3,2
41.531,2,1
41.531,1,0
41.5351,0,0
41.5351,0,1
41.5351,1,1
41.5392,1,0
41.5392,1,1
41.5441,2,4
41.5441,5,4
41.5441,1,1
41.5474,1,2
41.5475,2,2
41.5515,2,1
41.5515,1,0
41.5556,0,0
41.5556,0,1
41.5556,1,1
41.5596,1,1
41.5596,1,1
41.5637,1,2
41.5637,4,4
41.5679,3,2
41.5679,2,2
41.5679,1,1
41.5719,1,1
41.5719,0,0
41.576,0,0
41.576,0,0
41.5801,1,1
41.5801,2,2
41.5801,3,3
41.5842,3,3
41.5842,3,3
41.5883,3,2
41.5883,2,1
41.5924,1,1
41.5924,0,0
41.5925,0,0
41.5965,0,0
41.5965,0,1
41.6006,2,3
41.6007,3,3
41.6047,2,2
41.6047,2,2
41.6047,3,2
41.6088,2,2
41.6088,2,1
41.6129,1,0
41.6129,0,0
41.617,1,1
41.617,0,1
41.617,1,2
41.6211,2,2
41.6211,2,2
41.6252,3,2
41.6252,1,1
41.6293,1,2
41.6293,2,2
41.6293,2,2
41.6334,1,1
41.6335,1,0
41.6375,0,0
41.6376,0,0
41.6376,1,1
41.6416,1,2
41.6416,2,3
41.6456,2,2
41.6456,2,1
41.6498,2,4
41.6498,4,3
41.6498,1,0
41.6538,0,0
41.6538,1,1
41.6579,2,3
41.6579,2,2
41.6621,1,1
41.6621,1,1
41.6621,2,2
41.6662,2,3
41.6662,2,2
41.6703,1,1
41.6703,0,0
41.6743,1,1
41.6743,2,2
41.6744,2,2
41.6784,2,2
41.6785,2,1
41.6826,1,1
41.6826,1,1
41.6866,2,2
41.6866,2,2
41.6866,2,1
41.6908,1,1
41.6908,1,1
41.6948,1,1
41.6948,1,0
41.6989,0,1
41.699,1,1
41.699,1,1
41.703,2,2
41.703,3,3
41.7071,2,2
41.7071,1,1
41.7112,1,1
41.7112,1,1
41.7113,0,0
41.7153,1,1
41.7153,1,1
41.7195,1,2
41.7195,2,2
41.7235,2,2
41.7236,2,2
41.7236,2,2
41.7275,2,2
41.7275,2,2
41.7317,2,2
41.7317,1,1
41.7317,0,0
41.7357,0,0
41.7357,1,2
41.7398,2,1
41.7398,2,2
41.744,3,2
41.744,2,2
41.744,2,2
41.7481,2,2
41.7481,2,1
41.7523,1,0
41.7523,0,0
41.7564,0,0
41.7564,0,0
41.7564,1,3
41.7603,3,3
41.7603,3,2
41.7645,2,3
41.7645,2,2
41.7685,2,2
41.7685,2,1
41.7686,1,1
41.7726,2,2
41.7726,2,2
41.7767,0,0
41.7768,0,0
41.7809,0,1
41.7809,3,4
41.7809,2,3
41.785,3,3
41.785,1,2
41.7891,2,2
41.7891,2,2
41.7931,1,1
41.7931,1,0
41.7931,0,0
41.7973,0,1
41.7973,1,1
41.8014,1,2
41.8014,2,2
41.8014,2,3
41.8054,2,2
41.8054,2,2
41.8094,2,2
41.8095,1,1
41.8136,0,0
41.8137,0,0
41.8137,1,1
41.8177,1,1
41.8177,1,2
41.8217,3,3
41.8217,3,2
41.8259,2,2
41.8259,1,1
41.8259,1,1
41.83,1,1
41.83,1,1
41.8341,1,1
41.8341,1,1
41.8382,1,1
41.8382,0,1
41.8382,1,1
41.8423,1,1
41.8423,1,2
41.8464,3,3
41.8464,3,2
41.8505,2,1
41.8505,1,1
41.8505,1,0
41.8545,0,0
41.8546,0,1
41.8587,1,1
41.8588,1,1
41.8627,1,2
41.8628,2,2
41.8628,3,3
41.8668,4,3
41.8669,1,0
41.8709,1,2
41.8709,3,2
41.875,1,0
41.875,0,0
41.875,1,1
41.8791,1,1
41.8791,1,1
41.8832,2,3
41.8833,3,3
41.8873,3,2
41.8873,2,1
41.8874,1,1
41.8914,0,0
41.8914,0,0
41.8956,1,1
41.8956,1,1
41.8956,1,2
41.8996,2,2
41.8996,2,2
41.9037,1,2
41.9037,2,2
41.9078,3,2
41.9078,1,2
41.9078,2,2
41.912,2,2
41.912,1,0
41.916,0,0
41.9161,0,1
41.9202,1,2
41.9202,3,3
41.9202,2,2
41.9241,2,1
41.9242,2,2
41.9283,2,1
41.9283,1,2
41.9324,2,1
41.9324,1,0
41.9324,0,0
41.9365,1,1
41.9365,1,2
41.9406,2,1
41.9406,0,0
41.9447,1,3
41.9447,4,4
41.9447,4,3
41.9487,2,1
41.9487,1,2
41.9528,1,1
41.9528,0,0
41.9569,0,0
41.9569,1,1
41.957,1,1
41.9611,1,1
41.9611,2,3
41.9652,3,3
41.9652,4,3
41.9693,2,2
41.9693,2,2
41.9693,1,1
41.9733,0,0
41.9733,0,0
41.9775,0,1
41.9776,1,1
41.9776,1,1
41.9816,2,2
41.9816,2,2
41.9856,3,3
41.9856,2,2
41.9897,1,1
41.9897,2,2
41.9898,2,2
41.9938,1,1
41.9938,0,0
41.9979,0,0
41.9979,0,0
42.002,0,2
42.002,3,3
42.002,3,3
42.0061,3,2
42.0061,2,2
42.0107,1,2
42.0107,2,2
42.0143,2,1
42.0143,0,0
42.0144,0,0
42.0184,0,0
42.0184,0,2
42.0226,3,3
42.0226,2,3
42.0266,3,3
42.0266,3,2
42.0266,2,1
42.0308,1,0
42.0308,0,0
42.0349,0,0
42.0349,1,2
42.0389,2,1
42.0389,0,0
42.039,2,2
42.0429,3,2
42.0429,3,4
42.0471,3,3
42.0471,3,2
42.0511,2,1
42.0513,0,0
42.0513,0,0
42.0553,0,0
42.0553,0,0
42.0594,0,1
42.0594,2,3
42.0594,3,2
42.0635,2,3
42.0635,3,3
42.0676,2,2
42.0676,2,2
42.0717,2,2
42.0718,1,1
42.0718,0,0
42.0757,0,0
42.0757,1,1
42.0799,2,2
42.0799,2,2
42.084,2,3
42.084,2,2
42.0841,2,2
42.0881,2,2
42.0881,2,1
42.0921,1,0
42.0922,0,0
42.0963,0,0
42.0963,0,0
42.0964,1,1
42.1004,2,2
42.1004,2,2
42.1044,2,3
42.1045,3,2
42.1085,2,1
42.1085,1,1
42.1085,1,1
42.1125,1,1
42.1126,0,0
42.1168,1,1
42.1168,1,1
42.1209,1,1
42.1209,2,2
42.1209,2,2
42.1248,3,3
42.1249,2,2
42.129,1,1
42.1291,2,2
42.1331,1,1
42.1331,0,0
42.1332,0,0
42.1371,1,2
42.1372,2,2
42.1413,2,2
42.1413,2,2
42.1454,2,2
42.1454,2,2
42.1454,2,2
42.1494,2,2
42.1494,2,1
42.1535,0,0
42.1535,0,0
42.1535,0,0
42.1576,0,2
42.1576,2,3
42.1618,2,2
42.1618,2,3
42.1659,3,2
42.166,2,2
42.166,2,2
42.17,2,1
42.17,1,0
42.174,0,0
42.174,0,0
42.1782,0,1
42.1782,1,2
42.1783,2,2
42.1823,2,2
42.1823,3,1
42.1863,1,1
42.1863,1,1
42.1904,2,3
42.1904,4,2
42.1904,0,0
42.1946,0,0
42.1946,0,0
42.1987,1,1
42.1987,1,2
42.2027,2,2
42.2027,2,2
42.2028,2,2
42.2067,2,2
42.2067,3,2
42.2109,2,2
42.2109,1,1
42.2149,0,0
42.2149,0,0
42.215,0,1
42.219,1,2
42.219,1,1
42.2231,1,2
42.2232,3,3
42.2273,3,3
42.2274,2,2
42.2274,2,2
42.2313,2,1
42.2314,0,0
42.2354,0,0
42.2355,0,1
42.2355,1,1
42.2395,1,1
42.2395,1,1
42.2438,2,2
42.2438,2,3
42.2478,3,2
42.2478,2,2
42.2478,2,2
42.2519,2,1
42.2519,1,0
42.2559,0,0
42.2559,0,1
42.2601,1,1
42.2601,1,2
42.2601,2,3
42.2642,2,2
42.2642,2,2
42.2683,3,2
42.2683,2,2
42.2723,1,1
42.2723,1,0
42.2724,0,0
42.2765,0,1
42.2765,1,1
42.2806,1,1
42.2806,2,2
42.2848,2,1
42.2848,2,2
42.2848,3,3
42.2887,2,2
42.2887,2,1
42.2928,0,0
42.2928,0,0
42.297,0,0
42.297,1,2
42.297,1,1
42.3011,2,2
42.3011,2,2
42.3052,2,3
42.3052,3,4
42.3092,5,4
42.3092,3,1
42.3092,0,0
42.3134,0,0
42.3134,0,0
42.3175,0,0
42.3176,0,0
42.3176,1,2
42.3215,3,3
42.3216,3,2
42.3256,2,1
42.3256,1,2
42.3298,2,2
42.3298,1,1
42.3298,1,1
42.3338,1,1
42.3338,1,1
42.3379,0,0
42.338,0,0
42.342,0,1
42.342,2,2
42.342,3,3
42.3461,3,2
42.3461,2,1
42.3502,1,2
42.3502,2,1
42.3543,1,1
42.3543,1,0
42.3543,0,0
42.3584,0,1
42.3584,1,2
42.3624,2,2
42.3625,2,3
42.3666,3,2
42.3666,1,2
42.3666,2,2
42.3706,2,2
42.3706,1,0
42.3748,0,0
42.3748,0,1
42.3789,0,0
42.3789,0,1
42.3789,2,3
42.3829,3,3
42.3829,2,2
42.387,2,2
42.387,3,2
42.3912,2,1
42.3912,1,1
42.3912,0,0
42.3952,0,1
42.3953,0,0
42.3993,0,2
42.3993,2,3
42.3993,2,2
42.4034,2,2
42.4034,3,3
42.4075,2,2
42.4076,1,1
42.4117,1,1
42.4117,1,0
42.4117,0,0
42.4157,2,2
42.4158,1,1
42.4198,1,1
42.4198,2,2
42.4239,3,3
42.4239,2,2
42.4239,1,1
42.4281,1,1
42.4281,1,2
42.4321,1,1
42.4321,1,0
42.4362,0,1
42.4362,1,1
42.4363,1,1
42.4403,1,2
42.4404,2,2
42.4444,2,3
42.4444,2,2
42.4484,2,1
42.4485,2,2
42.4485,2,1
42.4525,1,0
42.4525,0,0
42.4566,0,1
42.4567,1,1
42.4608,1,1
42.4608,1,1
42.4608,2,2
42.4648,3,4
42.4649,3,2
42.469,2,2
42.4691,2,2
42.473,1,1
42.473,1,0
42.473,0,0
42.4771,0,1
42.4771,1,1
42.4812,1,2
42.4812,3,4
42.4854,2,2
42.4855,2,2
42.4855,2,2
42.4894,1,1
42.4895,1,1
42.4935,1,1
42.4936,0,0
42.4936,1,1
42.4976,1,1
42.4976,1,2
42.5017,2,2
42.5017,2,3
42.5058,3,2
42.5058,2,2
42.5059,2,2
42.51,2,2
42.51,1,0
42.514,1,0
42.514,0,0
42.5182,0,0
42.5182,0,1
42.5182,2,3
42.5221,2,2
42.5221,2,3
42.5264,3,3
42.5264,2,2
42.5305,2,2
42.5305,2,1
42.5305,1,0
42.5345,0,0
42.5345,0,1
42.5386,1,1
42.5386,0,0
42.5427,2,3
42.5427,2,2
42.5427,2,2
42.5468,3,3
42.5468,2,2
42.5509,2,1
42.5509,1,1
42.5549,1,0
42.5549,0,0
42.555,1,1
42.5591,0,0
42.5591,0,2
42.5632,3,3
42.5633,3,3
42.5633,2,2
42.5673,2,2
42.5673,1,1
42.5714,1,1
42.5714,1,1
42.5755,1,0
42.5755,0,0
42.5755,0,0
42.5796,0,2
42.5796,2,3
42.5836,2,3
42.5836,4,3
42.5877,2,2
42.5878,2,1
42.5878,1,1
42.5918,1,1
42.5918,1,1
42.596,1,0
42.5961,0,1
42.6001,1,1
42.6001,1,1
42.6001,2,2
42.6042,3,3
42.6042,2,2
42.6083,1,1
42.6084,1,1
42.6124,2,1
42.6124,1,1
42.6124,0,0
42.6163,1,2
42.6164,2,2
42.6205,1,1
42.6206,2,2
42.6246,2,3
42.6246,2,2
42.6246,2,1
42.6286,1,2
42.6286,2,1
42.6327,1,0
42.6327,0,0
42.6368,1,1
42.6368,0,0
42.6368,1,2
42.641,2,3
42.641,2,3
42.6451,3,2
42.6451,2,2
42.6492,2,2
42.6493,2,1
42.6493,0,1
42.6533,0,0
42.6533,0,0
42.6574,1,1
42.6575,1,1
42.6575,1,1
42.6614,2,2
42.6614,2,2
42.6655,2,2
42.6655,2,2
42.6697,2,2
42.6697,2,1
42.6697,1,1
42.6738,0,1
42.6738,1,1
42.6779,1,1
42.6779,1,1
42.682,2,2
42.682,2,2
42.682,2,2
42.686,2,2
42.686,2,1
42.6901,1,1
42.6902,1,1
42.6943,1,1
42.6943,0,0
42.6943,1,1
42.6983,1,1
42.6983,1,2
42.7024,3,3
42.7025,2,2
42.7066,2,2
42.7066,2,1
42.7066,1,2
42.7106,2,2
42.7106,1,0
42.7147,0,0
42.7148,0,2
42.7188,2,2
42.7188,1,2
42.7189,2,2
42.7229,1,1
42.7229,2,2
42.727,2,3
42.727,2,2
42.7311,2,1
42.7311,1,1
42.7312,1,0
42.7351,0,1
42.7351,1,0
42.7394,0,1
42.7394,1,2
42.7434,2,3
42.7434,2,3
42.7434,3,3
42.7475,2,1
42.7475,1,1
42.7516,1,1
42.7516,1,0
42.7516,0,1
42.7557,1,1
42.7557,1,1
42.7598,2,2
42.7598,2,2
42.7639,2,3
42.7639,2,2
42.7639,2,2
42.768,2,2
42.768,1,1
42.7721,1,1
42.7721,0,0
42.7762,0,1
42.7762,1,2
42.7762,2,2
42.7802,1,1
42.7803,2,2
42.7843,2,2
42.7843,2,2
42.7885,3,2
42.7885,3,3
42.7885,2,2
42.7926,0,0
42.7926,0,0
42.7966,0,0
42.7966,1,1
42.8007,1,2
42.8007,2,2
42.8007,2,2
42.8048,2,2
42.8048,2,2
42.8089,3,2
42.8089,1,2
42.813,2,1
42.813,0,0
42.813,0,0
42.8171,1,1
42.8171,2,2
42.8213,2,2
42.8213,2,3
42.8253,2,2
42.8254,2,2
42.8254,2,2
42.8293,2,1
42.8293,1,1
42.8335,0,0
42.8335,0,0
42.8375,0,0
42.8375,1,1
42.8376,1,1
42.8417,2,2
42.8418,2,2
42.8458,2,3
42.8459,3,2
42.8459,2,2
42.8498,2,1
42.8498,1,0
42.854,1,1
42.854,0,0
42.8582,0,0
42.8582,0,1
42.8582,2,3
42.8622,3,4
42.8622,3,2
42.8662,2,2
42.8662,2,1
42.8703,1,0
42.8703,1,1
42.8703,1,1
42.8746,0,0
42.8746,0,0
42.8785,1,3
42.8785,4,3
42.8826,2,1
42.8826,2,2
42.8827,2,3
42.8867,2,2
42.8867,2,2
42.8908,2,1
42.8908,1,0
42.8949,0,0
42.8949,1,1
42.8949,2,2
42.8989,1,0
42.899,0,1
42.9035,2,3
42.9035,3,3
42.9072,2,2
42.9072,2,2
42.9072,2,2
42.9113,1,1
42.9113,0,0
42.9153,0,0
42.9153,2,1
42.9195,1,0
42.9195,0,1
42.9195,2,2
42.9235,2,3
42.9235,3,3
42.9276,2,2
42.9277,2,2
42.9277,1,0
42.9317,0,0
42.9317,0,1
42.9358,1,1
42.9359,1,1
42.94,1,1
42.94,1,2
42.94,2,2
42.944,3,3
42.944,2,1
42.9481,1,1
42.9481,1,2
42.9523,1,1
42.9524,0,0
42.9524,1,0
42.9563,0,0
42.9563,1,2
42.9604,2,3
42.9604,2,2
42.9645,3,3
42.9645,2,2
42.9645,2,1
42.9686,1,2
42.9687,2,1
42.9727,1,0
42.9727,0,0
42.9768,1,1
42.9768,1,1
42.9768,1,1
42.9808,1,2
42.9808,2,2
42.985,3,3
42.985,2,2
42.9891,2,2
42.9891,2,2
42.9891,1,1
42.9932,1,0
42.9932,0,0
42.9973,0,0
42.9973,0,2
43.0014,2,2
43.0015,2,3
43.0015,2,3
43.0055,3,3
43.0055,2,1
43.0096,1,0
43.0096,0,2
43.0136,1,1
43.0136,1,0
43.0137,1,1
43.0178,1,1
43.0178,1,1
43.0219,1,1
43.0219,1,2
43.0219,2,2
43.0259,3,3
43.0259,3,3
43.03,3,1
43.03,0,0
43.0341,1,1
43.0342,0,0
43.0342,0,0
43.0382,0,1
43.0382,1,2
43.0423,3,4
43.0423,4,4
43.0464,3,2
43.0464,2,2
43.0465,2,1
43.0505,1,1
43.0505,3,4
43.0546,4,0
43.0546,0,-2
43.0587,-3,-3
43.0587,-2,-1
43.0587,1,6
43.0628,8,7
43.0628,4,3
43.0669,2,2
43.067,2,2
43.071,2,1
43.071,1,2
43.071,2,2
43.0751,1,0
43.0751,0,-1
43.0792,0,0
43.0792,1,2
43.0833,2,3
43.0833,4,3
43.0833,3,2
43.0874,2,2
43.0874,2,2
43.0914,1,1
43.0915,1,1
43.0955,2,1
43.0956,0,0
43.0956,0,2
43.0997,1,1
43.0997,1,0
43.1038,0,1
43.1038,2,2
43.1078,2,2
43.1078,2,3
43.1079,3,2
43.1119,2,2
43.112,1,0
43.1161,0,0
43.1161,0,0
43.1161,0,0
43.1201,1,2
43.1201,2,3
43.1242,3,3
43.1242,3,3
43.1283,2,2
43.1283,2,2
43.1283,2,1
43.1324,1,0
43.1324,0,0
43.1365,0,1
43.1365,1,1
43.1412,1,2
43.1412,2,3
43.1413,2,2
43.1447,2,3
43.1447,4,3
43.1489,2,1
43.1489,0,0
43.1529,0,0
43.1529,0,0
43.1529,1,1
43.157,0,0
43.157,1,2
43.1611,2,3
43.1611,3,2
43.1652,2,3
43.1652,4,4
43.1652,3,2
43.1693,1,1
43.1693,1,1
43.1734,1,1
43.1734,0,0
43.1775,0,1
43.1775,0,0
43.1775,0,2
43.1816,3,2
43.1816,3,3
43.1857,3,2
43.1857,3,3
43.1897,2,1
43.1897,0,1
43.1898,0,0
43.1938,0,0
43.1938,1,1
43.1979,1,1
43.1979,1,1
43.198,1,1
43.202,2,2
43.2021,3,4
43.2061,3,3
43.2061,2,2
43.2103,1,1
43.2103,1,1
43.2103,1,0
43.2143,0,0
43.2144,0,0
43.2185,1,1
43.2185,1,1
43.2225,2,2
43.2225,3,3
43.2226,3,3
43.2266,2,2
43.2266,2,2
43.2307,2,2
43.2308,1,1
43.2349,0,0
43.2349,0,0
43.2349,0,1
43.2389,2,2
43.239,2,2
43.243,2,2
43.243,2,3
43.2471,2,2
43.2472,1,1
43.2472,1,2
43.2513,2,2
43.2513,2,2
43.2553,1,0
43.2554,-1,-1
43.2594,-1,0
43.2594,0,2
43.2594,4,5
43.2635,5,4
43.2635,3,3
43.2676,2,2
43.2676,2,2
43.2716,1,1
43.2717,1,1
43.2717,0,0
43.2757,0,0
43.2757,0,0
43.2799,1,2
43.2799,3,3
43.2799,3,3
43.284,3,3
43.284,1,1
43.2881,1,1
43.2881,1,1
43.2922,1,1
43.2922,1,1
43.2922,1,1
43.2963,0,0
43.2963,1,1
43.3004,1,1
43.3004,1,2
43.3045,2,2
43.3045,2,2
43.3045,4,4
43.3085,3,2
43.3085,2,1
43.3127,0,0
43.3127,0,0
43.3168,0,1
43.3168,2,1
43.3168,1,0
43.3208,0,0
43.3208,0,2
43.3249,2,3
43.3249,3,3
43.329,3,2
43.329,2,2
43.3291,2,1
43.3331,0,0
43.3331,0,0
43.3373,0,0
43.3373,1,1
43.3413,2,3
43.3413,4,3
43.3413,3,3
43.3454,2,2
43.3454,2,2
43.3496,1,1
43.3496,1,1
43.3536,0,0
43.3536,0,0
43.3536,0,0
43.3577,0,2
43.3577,2,2
43.3619,2,3
43.3619,2,3
43.3619,3,4
43.3659,3,3
43.366,2,1
43.37,1,1
43.3701,0,0
43.3741,0,0
43.3741,1,0
43.3741,1,1
43.3782,1,1
43.3782,1,2
43.3823,2,3
43.3823,3,3
43.3864,2,2
43.3864,2,2
43.3864,2,2
43.3904,1,1
43.3904,0,0
43.3946,0,0
43.3946,1,1
43.3988,1,2
43.3988,2,2
43.3988,2,2
43.4028,1,1
43.4028,2,2
43.4069,2,3
43.4069,2,3
43.4109,2,1
43.4109,0,0
43.411,0,1
43.4151,1,1
43.4151,1,1
43.4192,1,2
43.4192,3,4
43.4233,2,2
43.4233,0,0
43.4233,0,0
43.4273,0,1
43.4273,2,3
43.4314,3,2
43.4315,1,1
43.4355,1,2
43.4355,2,1
43.4355,1,1
43.4396,1,2
43.4396,2,2
43.4437,2,2
43.4437,2,2
43.4478,2,2
43.4478,2,1
43.4478,0,0
43.4519,0,1
43.4519,1,1
43.456,1,1
43.456,1,0
43.456,1,1
43.4601,2,5
43.4601,5,3
43.4642,2,0
43.4642,0,1
43.4683,1,2
43.4684,2,2
43.4684,1,1
43.4723,0,0
43.4724,0,0
43.4764,1,1
43.4765,1,1
43.4806,2,3
43.4806,3,3
43.4806,2,2
43.4847,1,1
43.4847,1,1
43.4888,1,2
43.4888,3,2
43.4929,1,0
43.4929,0,0
43.4929,0,1
43.497,0,1
43.497,2,2
43.5011,3,3
43.5011,2,2
43.5051,2,2
43.5051,2,2
43.5051,2,3
43.5093,2,2
43.5093,2,2
43.5133,1,0
43.5134,0,0
43.5175,0,0
43.5175,0,1
43.5175,1,3
43.5215,4,3
43.5215,3,3
43.5256,2,2
43.5257,2,1
43.5297,1,1
43.5298,2,2
43.5298,1,1
43.5339,1,1
43.5339,0,0
43.5379,0,0
43.5379,0,1
43.5379,2,3
43.542,2,3
43.542,3,3
43.5461,2,2
43.5461,1,1
43.5504,2,2
43.5504,2,1
43.5504,1,1
43.5543,0,0
43.5543,0,0
43.5584,0,1
43.5584,2,2
43.5625,2,3
43.5625,3,3
43.5626,2,2
43.5666,2,2
43.5666,2,1
43.5707,1,1
43.5707,1,0
43.5748,0,0
43.5748,0,0
43.5748,1,1
43.5789,1,1
43.5789,2,2
43.5831,2,2
43.5831,2,2
43.5871,2,2
43.5872,3,2
43.5872,2,2
43.5912,2,2
43.5912,2,1
43.5953,0,0
43.5953,0,0
43.5994,0,0
43.5994,0,2
43.5994,2,3
43.6034,2,3
43.6034,4,3
43.6075,2,2
43.6076,1,1
43.6116,1,1
43.6116,1,1
43.6117,1,1
43.6158,0,0
43.6158,1,1
43.6199,1,1
43.62,2,2
43.62,2,2
43.624,2,2
43.624,2,3
43.628,2,2
43.628,1,1
43.6323,1,1
43.6323,0,0
43.6323,1,1
43.6363,1,1
43.6363,1,2
43.6403,2,2
43.6404,1,1
43.6444,1,2
43.6444,3,3
43.6444,2,2
43.6485,1,1
43.6485,1,1
43.6526,1,2
43.6526,1,1
43.6567,0,0
43.6567,0,0
43.6567,1,1
43.6608,2,2
43.6609,2,1
43.665,1,2
43.665,2,2
43.6691,2,3
43.6691,2,1
43.6691,1,1
43.6731,0,0
43.6732,1,1
43.6772,2,2
43.6772,1,2
43.6813,2,2
43.6814,2,2
43.6814,2,2
43.6853,2,2
43.6854,2,2
43.6896,1,1
43.6896,1,1
43.6935,0,0
43.6936,1,1
43.6936,0,0
43.6977,0,1
43.6978,1,1
43.7018,2,2
43.7018,2,2
43.7059,3,3
43.7059,2,2
43.7059,1,1
43.7099,1,1
43.7099,1,1
43.7141,0,1
43.7141,1,1
43.7142,1,0
43.7182,0,2
43.7182,2,3
43.7223,3,3
43.7223,3,3
43.7263,1,1
43.7263,1,1
43.7264,1,1
43.7304,1,1
43.7305,1,1
43.7345,1,0
43.7345,0,0
43.7386,0,0
43.7386,1,2
43.7386,3,2
43.7427,2,2
43.7427,3,3
43.7469,2,2
43.7469,2,2
43.751,2,2
43.751,1,1
43.751,1,0
43.755,0,0
43.755,0,0
43.7591,0,0
43.7591,1,2
43.7632,3,3
43.7632,3,4
43.7633,3,3
43.7674,3,2
43.7674,1,1
43.7714,1,1
43.7715,0,0
43.7755,0,0
43.7755,0,0
43.7755,0,1
43.7796,1,2
43.7796,2,2
43.7836,3,3
43.7837,3,2
43.7878,2,2
43.7878,2,2
43.7878,1,1
43.7918,1,1
43.7919,1,1
43.796,0,0
43.796,1,0
43.796,0,0
43.8001,2,2
43.8001,3,3
43.8042,3,3
43.8042,3,3
43.8083,2,1
43.8083,1,1
43.8083,1,1
43.8124,1,1
43.8124,1,0
43.8165,0,0
43.8166,0,0
43.8206,1,1
43.8206,2,4
43.8206,4,4
43.8247,3,2
43.8247,2,2
43.8287,1,1
43.8288,2,2
43.8328,1,1
43.8328,1,1
43.8328,0,0
43.8369,0,1
43.8369,1,1
43.841,2,2
43.841,2,2
43.8452,3,3
43.8452,2,2
43.8452,2,2
43.8492,2,2
43.8492,2,1
43.8533,1,1
43.8533,0,0
43.8574,0,0
43.8574,0,0
43.8574,2,3
43.8615,2,2
43.8615,2,2
43.8656,2,3
43.8656,3,2
43.8697,2,2
43.8697,2,2
43.8697,1,1
43.8737,0,0
43.8737,0,0
43.878,1,1
43.878,0,0
43.882,1,2
43.882,2,3
43.882,3,3
43.8861,4,3
43.8861,3,3
43.8902,1,1
43.8903,0,0
43.8903,0,0
43.8944,0,0
43.8944,0,1
43.8985,1,1
43.8985,1,1
43.9025,1,1
43.9025,2,2
43.9025,2,3
43.9065,3,2
43.9065,2,1
43.9107,1,1
43.9107,1,1
43.9148,0,0
43.9148,1,0
43.9148,1,1
43.9189,1,1
43.9189,2,2
43.923,1,2
43.923,2,2
43.9271,3,3
43.9271,3,3
43.9271,1,1
43.9312,1,0
43.9312,0,0
43.9353,0,0
43.9353,0,0
43.9393,0,0
43.9393,1,2
43.9393,2,2
43.9435,3,3
43.9435,2,2
43.9476,2,2
43.9476,2,1
43.9516,1,1
43.9517,1,1
43.9517,0,0
43.9557,1,1
43.9557,1,1
43.9598,1,2
43.9598,2,2
43.964,3,3
43.964,3,2
43.964,1,1
43.968,1,1
43.968,2,2
43.9722,1,1
43.9722,0,0
43.9722,0,1
43.9762,1,0
43.9762,0,1
43.9803,2,2
43.9803,2,3
43.9844,2,2
43.9845,3,3
43.9845,3,2
43.9885,2,2
43.9885,1,1
43.9926,1,0
43.9926,0,0
43.9967,0,0
43.9967,0,2
43.9967,2,2
44.0007,3,2
44.0007,3,3
44.0049,3,2
44.0049,1,1
44.009,2,2
44.009,2,1
44.009,1,1
44.013,0,0
44.013,0,1
44.0171,1,1
44.0171,1,1
44.0213,2,2
44.0213,2,2
44.0213,3,2
44.0254,2,2
44.0254,2,2
44.0295,2,2
44.0295,1,0
44.0335,0,1
44.0335,1,1
44.0335,1,0
44.0376,1,0
44.0376,0,0
44.0417,1,2
44.0417,3,3
44.0458,3,3
44.0458,4,3
44.0458,2,2
44.0498,1,1
44.0499,1,0
44.054,0,0
44.054,0,0
44.054,1,2
44.0581,2,2
44.0581,2,2
44.0622,2,2
44.0622,2,2
44.0663,2,2
44.0664,3,2
44.0664,2,1
44.0704,1,1
44.0704,1,0
44.0745,0,0
44.0746,0,1
44.0786,1,1
44.0786,1,1
44.0786,2,2
44.0826,2,2
44.0826,3,3
44.0867,2,2
44.0868,2,2
44.0909,2,1
44.0909,1,0
44.0909,0,0
44.095,0,1
44.095,1,1
44.0991,1,1
44.0991,1,1
44.1032,2,2
44.1032,2,2
44.1032,2,3
44.1073,3,3
44.1074,2,1
44.1114,1,1
44.1114,1,1
44.1155,0,0
44.1155,0,0
44.1155,1,1
44.1196,1,1
44.1196,2,2
44.1236,2,3
44.1236,3,2
44.1278,2,2
44.1278,2,2
44.1278,2,2
44.1318,0,0
44.1318,0,0
44.136,0,1
44.136,1,1
44.14,2,2
44.14,2,2
44.14,2,2
44.1441,1,2
44.1441,2,3
44.1482,2,2
44.1482,2,2
44.1482,2,2
44.1523,1,1
44.1523,0,0
44.1563,0,1
44.1563,1,1
44.1606,1,1
44.1606,2,2
44.1606,2,2
44.1646,3,3
44.1646,2,2
44.1687,2,2
44.1687,1,1
44.1727,1,1
44.1728,0,0
44.1728,0,0
44.1769,0,0
44.1769,2,2
44.1809,3,2
44.1809,2,2
44.185,2,2
44.185,3,3
44.1851,2,2
44.1892,1,1
44.1892,1,0
44.1933,0,0
44.1933,1,1
44.1974,1,0
44.1974,0,1
44.1974,2,3
44.2015,2,3
44.2015,4,3
44.2055,2,2
44.2055,1,1
44.2096,1,1
44.2097,1,1
44.2097,1,0
44.2137,0,1
44.2137,0,1
44.2178,1,1
44.2178,1,1
44.2219,2,2
44.2219,2,2
44.2219,3,3
44.226,1,2
44.226,2,2
44.2301,2,1
44.2301,1,1
44.2301,1,1
44.2342,0,0
44.2342,0,0
44.2383,0,0
44.2383,1,2
44.2425,2,3
44.2425,3,3
44.2425,3,3
44.2465,3,2
44.2465,2,2
44.2506,2,1
44.2506,1,0
44.2547,0,0
44.2547,0,1
44.2547,0,0
44.2588,1,2
44.2588,3,3
44.2629,2,2
44.2629,3,4
44.267,4,3
44.267,1,0
44.267,1,0
44.271,0,0
44.2711,0,0
44.2752,1,1
44.2752,1,0
44.2793,1,1
44.2793,1,1
44.2794,2,2
44.2833,3,3
44.2833,3,2
44.2875,2,2
44.2875,2,2
44.2916,1,1
44.2916,1,0
44.2916,0,0
44.2956,0,1
44.2956,1,1
44.2998,1,1
44.2998,1,1
44.3038,2,2
44.3038,3,3
44.3038,3,2
44.3079,2,2
44.3079,1,1
44.312,1,1
44.312,0,0
44.312,0,0
44.3161,0,0
44.3161,1,1
44.3202,2,2
44.3202,3,3
44.3243,2,2
44.3243,2,3
44.3243,3,3
44.3284,3,3
44.3284,1,1
44.3325,0,0
44.3325,0,0
44.3366,0,0
44.3366,0,0
44.3366,0,1
44.3407,2,3
44.3407,3,2
44.3448,2,2
44.3448,3,4
44.3489,2,2
44.3489,1,0
44.3489,0,0
44.3529,1,1
44.3529,1,0
44.3571,1,1
44.3571,1,1
44.3612,1,1
44.3612,1,1
44.3612,2,2
44.3653,2,3
44.3653,3,2
44.3693,2,1
44.3694,1,0
44.3735,0,0
44.3735,1,1
44.3735,0,0
44.3776,0,2
44.3776,3,3
44.3817,3,3
44.3817,2,2
44.3857,2,2
44.3857,2,2
44.3857,2,2
44.3898,1,1
44.3899,0,0
44.3939,0,0
44.3939,0,0
44.398,0,0
44.398,1,2
44.398,2,3
44.4021,3,2
44.4021,1,2
44.4063,3,3
44.4063,3,3
44.4064,3,2
44.4103,1,0
44.4103,0,0
44.4144,0,0
44.4144,0,0
44.4194,0,1
44.4194,1,1
44.4194,2,2
44.4226,3,3
44.4226,3,3
44.4267,2,2
44.4267,1,2
44.4308,2,2
44.4308,2,1
44.4308,0,0
44.4348,0,0
44.4349,0,1
44.439,1,1
44.439,1,2
44.4431,2,2
44.4431,3,3
44.4431,3,2
44.4471,2,2
44.4471,2,2
44.4513,1,1
44.4513,1,1
44.4554,0,0
44.4554,0,0
44.4554,0,1
44.4595,1,2
44.4595,2,2
44.4636,2,3
44.4636,3,2
44.4676,2,2
44.4677,2,1
44.4677,1,0
44.4718,0,0
44.4718,1,2
44.4759,2,2
44.4759,1,1
44.4799,1,1
44.4799,1,1
44.4799,2,2
44.484,2,2
44.484,2,3
44.4882,3,2
44.4882,2,1
44.4882,1,1
44.4922,1,1
44.4922,1,0
44.4963,0,0
44.4963,0,1
44.5004,1,1
44.5004,1,1
44.5004,2,2
44.5045,3,4
44.5045,4,3
44.5086,2,1
44.5086,0,0
44.5127,0,0
44.5127,0,1
44.5127,1,0
44.5168,0,1
44.5168,1,2
44.5209,3,2
44.5209,2,2
44.525,2,2
44.525,2,3
44.525,2,2
44.5291,2,1
44.5291,1,1
44.5332,1,0
44.5332,0,0
44.5373,0,1
44.5373,1,1
44.5373,1,2
44.5414,2,2
44.5414,2,3
44.5454,3,2
44.5455,2,1
44.5495,1,1
44.5495,1,1
44.5496,0,0
44.5537,1,1
44.5537,2,1
44.5578,1,1
44.5578,1,0
44.5618,1,2
44.5618,2,4
44.5618,4,4
44.5659,3,2
44.5659,2,2
44.5701,2,0
44.5701,0,0
44.5701,0,0
44.5742,0,1
44.5742,1,1
44.5783,1,1
44.5783,1,2
44.5823,2,2
44.5823,2,2
44.5823,2,2
44.5865,2,3
44.5865,3,2
44.5905,1,1
44.5906,1,0
44.5946,0,0
44.5946,1,1
44.5946,2,2
44.5987,1,1
44.5987,1,1
44.6028,1,2
44.6029,2,3
44.607,3,2
44.607,2,2
44.607,2,2
44.611,1,0
44.611,0,0
44.6151,0,1
44.6151,1,1
44.6193,1,1
44.6193,1,1
44.6193,2,2
44.6233,3,3
44.6233,2,2
44.6274,2,2
44.6274,2,2
44.6315,1,1
44.6315,0,0
44.6315,0,0
44.6356,1,1
44.6356,1,1
44.6397,1,1
44.6397,2,2
44.6438,2,2
44.6438,2,2
44.6438,2,3
44.6478,2,2
44.6478,2,2
44.6521,1,1
44.6521,1,1
44.6561,0,0
44.6561,0,0
44.6561,0,0
44.6601,1,2
44.6601,2,3
44.6643,3,3
44.6643,2,2
44.6643,2,2
44.6684,2,1
44.6684,1,1
44.6725,1,1
44.6725,1,0
44.6766,0,0
44.6766,1,2
44.6766,2,2
44.6806,1,1
44.6806,1,2
44.6847,2,2
44.6847,2,3
44.6889,2,2
44.6889,2,2
44.6889,1,1
44.6929,0,0
44.6929,1,0
44.697,1,1
44.697,1,1
44.7011,2,2
44.7012,2,2
44.7012,2,2
44.7052,3,2
44.7052,2,2
44.7093,1,1
44.7093,2,1
44.7134,1,0
44.7134,0,0
44.7135,1,1
44.7175,2,2
44.7175,1,1
44.7217,1,2
44.7217,3,3
44.7257,2,2
44.7257,2,2
44.7257,3,1
44.7298,1,0
44.7298,0,0
44.7339,0,0
44.7339,1,1
44.738,1,1
44.738,1,1
44.738,1,2
44.742,3,2
44.7421,3,3
44.7463,3,2
44.7463,2,1
44.7463,1,1
44.7503,1,1
44.7503,1,0
44.7544,0,0
44.7545,0,1
44.7585,1,1
44.7585,1,1
44.7585,2,2
44.7626,2,3
44.7626,3,3
44.7666,2,1
44.7666,1,1
44.7708,2,2
44.7708,2,1
44.7708,1,0
44.7748,0,0
44.7748,0,0
44.7789,0,1
44.7789,2,2
44.7831,3,3
44.7831,3,2
44.7831,2,2
44.7871,2,2
44.7871,2,1
44.7913,0,1
44.7913,0,0
44.7953,0,0
44.7953,0,0
44.7954,1,1
44.7994,2,2
44.7995,3,4
44.8036,3,2
44.8036,2,2
44.8077,2,3
44.8077,2,1
44.8077,1,1
44.8118,1,1
44.8118,0,0
44.8158,1,0
44.8158,0,0
44.82,1,2
44.82,2,3
44.82,2,2
44.824,3,3
44.824,3,2
44.8281,2,1
44.8281,1,1
44.8281,1,1
44.8322,1,1
44.8322,0,0
44.8364,1,1
44.8364,1,1
44.8412,1,1
44.8412,1,2
44.8412,2,2
44.8445,3,3
44.8445,2,1
44.8486,1,1
44.8486,1,1
44.8527,1,1
44.8527,0,0
44.8527,1,1
44.8567,1,1
44.8567,1,1
44.8608,2,2
44.8608,2,3
44.865,3,2
44.865,2,2
44.865,2,2
44.8691,2,1
44.8691,1,0
44.8732,0,0
44.8732,0,1
44.8773,1,1
44.8773,1,1
44.8773,1,2
44.8813,3,3
44.8813,3,2
44.8854,1,2
44.8854,2,2
44.8895,2,2
44.8895,1,1
44.8895,1,0
44.8936,0,0
44.8936,1,1
44.8977,1,1
44.8977,1,1
44.9018,1,2
44.9019,3,3
44.9019,3,2
44.9059,2,2
44.9059,2,2
44.91,1,1
44.91,1,1
44.9141,1,1
44.9141,0,0
44.9141,1,1
44.9182,1,1
44.9182,1,1
44.9223,1,2
44.9223,2,2
44.9264,2,3
44.9264,4,2
44.9264,2,1
44.9304,1,1
44.9304,1,1
44.9346,1,0
44.9346,0,0
44.9347,0,0
44.9387,0,2
44.9387,3,3
44.9428,3,3
44.9428,3,2
44.9469,2,2
44.9469,2,2
44.9469,2,1
44.9509,0,1
44.9509,0,0
44.955,0,0
44.955,1,1
44.9592,1,0
44.9592,1,2
44.9592,2,2
44.9633,3,3
44.9633,4,4
44.9673,3,2
44.9674,1,1
44.9715,1,1
44.9715,1,1
44.9715,0,0
44.9755,1,1
44.9755,1,1
44.9797,0,0
44.9797,1,2
44.9837,3,3
44.9837,4,3
44.9838,2,2
44.9878,2,2
44.9878,2,1
44.9919,1,0
44.9919,0,0
44.996,0,0
44.996,0,0
44.9961,1,1
45.0001,1,2
45.0001,2,3
45.0043,5,4
45.0043,4,2
45.0083,2,2
45.0083,2,2
45.0083,1,1
45.0124,0,0
45.0124,0,0
45.0165,0,1
45.0166,1,1
45.0166,1,1
45.0207,1,2
45.0207,2,3
45.0247,3,3
45.0247,2,2
45.0288,2,3
45.0289,2,1
45.0289,1,0
45.0329,0,0
45.033,0,0
45.037,0,0
45.037,0,1
45.0411,2,2
45.0411,3,3
45.0411,2,2
45.0451,2,2
45.0451,2,2
45.0493,2,2
45.0493,2,2
45.0534,1,1
45.0534,1,1
45.0534,1,1
45.0574,1,1
45.0575,1,2
45.0615,2,2
45.0615,2,2
45.0656,2,2
45.0657,2,2
45.0657,2,2
45.0698,2,1
45.0698,1,0
45.0738,0,0
45.0738,0,1
45.0779,1,1
45.078,1,1
45.078,1,2
45.082,2,2
45.082,2,2
45.0862,3,2
45.0862,1,1
45.0903,1,1
45.0903,1,1
45.0903,1,1
45.0943,0,1
45.0943,1,1
45.0984,1,1
45.0985,1,1
45.1025,1,2
45.1025,2,3
45.1025,3,2
45.1066,2,2
45.1066,2,1
45.1107,1,1
45.1107,1,1
45.1107,0,0
45.1148,1,1
45.1148,1,1
45.1189,1,1
45.1189,1,1
45.123,1,1
45.123,1,1
45.123,1,1
45.1271,3,4
45.1271,3,1
45.1311,0,0
45.1312,0,2
45.1353,6,8
45.1353,10,6
45.1354,0,-3
45.1394,-4,-3
45.1394,-2,0
45.1435,2,3
45.1435,6,8
45.1476,10,6
45.1476,-2,-6
45.1517,-6,-1
45.1517,4,6
45.1517,4,2
45.1557,0,-2
45.1557,-5,-5
45.1599,-5,-3
45.1599,-3,0
45.16,6,10
45.1639,10,15
45.164,21,19
45.1681,12,1
45.1681,-9,-13
45.1721,-8,-3
45.1722,-2,-4
45.1763,-7,-6
45.1763,-1,5
45.1763,11,16
45.1803,16,14
45.1804,9,-1
45.1845,-12,-11
45.1845,-2,-5
45.1886,-17,-17
45.1887,-7,-3
45.1926,-3,0
45.1926,3,10
45.1926,13,12
45.1967,8,4
45.1967,7,23
45.2008,44,44
45.2009,29,2
45.205,-24,-27
45.205,-22,-14
45.209,-6,-8
45.209,-11,-11
45.209,-6,0
45.2131,12,25
45.2131,30,18
45.2173,-3,-26
45.2173,-42,-40
45.2213,-26,-12
45.2214,1,22
45.2254,49,61
45.2254,55,34
45.2254,11,0
45.2295,-1,-9
45.2296,-21,-30
45.2336,-32,-26
45.2336,-19,-14
45.2378,-6,7
45.2378,20,24
45.2418,17,10
45.2418,5,-1
45.2418,0,4
45.2458,2,0
45.2458,0,8
45.25,23,21
45.25,4,-12
45.2541,-17,-12
45.2541,-2,3
45.2541,10,4
45.2581,-11,-4
45.2581,11,20
45.2623,22,11
45.2623,2,-1
45.2664,-4,-9
45.2665,-15,-20
45.2705,-20,-14
45.2705,-7,2
45.2705,13,20
45.2745,13,-3
45.2746,-20,-20
45.2786,-3,13
45.2786,21,25
45.2828,32,29
45.2828,11,-8
45.2869,-16,-11
45.2869,1,21
45.2869,38,28
45.2909,4,-12
45.2909,-20,-24
45.295,-24,-26
45.295,-26,-15
45.2991,-1,13
45.2991,30,33
45.3033,23,11
45.3033,1,-3
45.3033,4,8
45.3073,4,2
45.3073,2,2
45.3114,1,-1
45.3114,-3,-14
45.3157,-23,-17
45.3157,-5,-1
45.3158,0,-1
45.3196,2,8
45.3196,15,18
45.3237,16,16
45.3237,12,2
45.3279,-10,-11
45.3279,-4,4
45.3319,13,8
45.3319,-4,-3
45.3319,3,4
45.3359,0,-4
45.3359,-2,0
45.3401,-1,9
45.3401,22,23
45.3442,10,-5
45.3442,-16,-16
45.3442,-8,0
45.3483,6,5
45.3483,2,2
45.3523,5,9
45.3523,9,2
45.3565,-4,-11
45.3565,-18,-21
45.3565,-18,-7
45.3605,7,23
45.3606,35,31
45.3647,14,-5
45.3647,-27,-20
45.3688,9,21
45.3688,18,14
45.3729,8,3
45.3729,-5,-13
45.3729,-12,-5
45.3769,2,3
45.3769,0,-4
45.3811,-5,-4
45.3811,-3,-3
45.3852,0,12
45.3853,27,29
45.3853,17,7
45.3893,-1,-7
45.3893,-9,-9
45.3933,-4,-2
45.3933,-2,0
45.3975,1,4
45.3975,6,2
45.3975,-1,0
45.4016,3,8
45.4016,8,4
45.4057,0,-2
45.4057,-3,-2
45.4097,-5,-11
45.4097,-7,4
45.4138,11,14
45.4138,9,-2
45.4139,-7,3
45.418,24,22
45.418,1,-2
45.4221,10,13
45.4221,4,-2
45.4261,-10,-11
45.4261,-3,0
45.4261,-1,-3
45.4302,-6,-5
45.4302,-9,-10
45.4343,-7,-6
45.4343,-3,2
45.4385,18,42
45.4385,43,22
45.4424,-1,-13
45.4424,-9,0
45.4424,3,0
45.4467,-3,-1
45.4468,0,3
45.4507,2,2
45.4507,3,-3
45.4548,-13,-11
45.4548,-4,-6
45.4548,-7,-2
45.4588,3,7
45.4588,7,6
45.463,3,-2
45.463,-8,-9
45.4671,3,23
45.4671,37,42
45.4671,36,20
45.4711,2,-10
45.4711,-19,-25
45.4753,-29,-29
45.4753,-21,-7
45.4794,7,15
45.4794,16,10
45.4835,3,-2
45.4835,-4,-4
45.4835,2,11
45.4875,19,20
45.4875,11,0
45.4916,-6,-9
45.4916,-6,3
45.4958,10,4
45.4958,-7,-12
45.4958,-7,1
45.4999,6,6
45.4999,7,8
45.504,9,8
45.504,5,-2
45.5081,-9,-9
45.5081,0,6
45.5081,5,3
45.5121,4,18
45.5121,25,14
45.5162,-3,-12
45.5162,-11,-7
45.5203,-3,0
45.5203,2,1
45.5244,0,-3
45.5244,-7,-5
45.5244,-5,-6
45.5286,-8,-9
45.5286,0,17
45.5326,24,20
45.5326,11,3
45.5366,-1,-1
45.5367,0,0
45.5367,-1,1
45.5408,15,24
45.5409,15,4
45.5449,-5,-13
45.5449,-14,-9
45.549,-3,5
45.549,7,2
45.549,-2,-4
45.553,-3,0
45.553,3,8
45.5572,10,8
45.5572,0,-6
45.5613,-10,-8
45.5613,0,4
45.5613,3,8
45.5654,13,11
45.5654,7,5
45.5695,5,0
45.5695,-8,-9
45.5736,0,6
45.5736,9,12
45.5777,10,3
45.5777,-3,-4
45.5777,-7,-15
45.5818,-15,-6
45.5818,14,34
45.5858,38,27
45.5859,7,-10
45.59,-19,-20
45.5901,-13,-7
45.5901,-1,4
45.594,0,-3
45.594,-4,-4
45.5982,-1,4
45.5982,7,10
45.6024,9,6
45.6024,4,3
45.6024,4,3
45.6063,1,1
45.6063,1,0
45.6105,-3,-7
45.6105,-5,1
45.6146,7,12
45.6146,14,12
45.6146,9,0
45.6187,-10,-16
45.6187,-13,0
45.6227,10,13
45.6227,12,7
45.6267,4,3
45.6268,2,1
45.631,1,1
45.631,3,2
45.631,0,-2
45.6351,-5,-6
45.6351,-8,-6
45.6391,0,5
45.6391,8,6
45.6432,2,0
45.6432,0,3
45.6432,7,11
45.6474,13,7
45.6474,0,-4
45.6514,-8,-9
45.6514,-11,-5
45.6555,9,13
45.6555,11,11
45.6555,6,4
45.6596,8,8
45.6596,5,-1
45.6637,-5,-5
45.6637,-4,-3
45.6678,-1,1
45.6678,2,3
45.6679,2,3
45.6719,4,0
45.6719,-6,-10
45.6759,-9,-7
45.6759,-3,-1
45.6801,1,7
45.6801,13,14
45.6842,11,9
45.6842,7,6
45.6842,5,2
45.6882,0,0
45.6883,0,-1
45.6923,-1,-2
45.6923,-3,-3
45.6965,-1,0
45.6965,1,4
45.6965,5,7
45.7005,7,7
45.7006,7,6
45.7047,5,3
45.7047,2,0
45.7047,-1,0
45.7087,-1,-2
45.7087,-3,-2
45.7128,-1,0
45.7128,1,1
45.717,1,2
45.717,3,4
45.717,4,4
45.721,5,4
45.721,4,2
45.7251,1,1
45.7251,0,0
45.7292,0,0
45.7292,0,0
45.7292,0,0
45.7333,1,1
45.7334,1,2
45.7374,2,3
45.7374,3,4
45.7414,4,4
45.7414,3,2
45.7414,2,2
45.7456,1,1
45.7456,1,1
45.7497,2,1
45.7497,1,0
45.7538,0,0
45.7538,1,1
45.7538,2,2
45.7578,2,2
45.7578,2,3
45.762,2,2
45.762,1,1
45.766,0,0
45.766,0,0
45.766,0,1
45.7701,1,2
45.7701,2,3
45.7743,3,3
45.7743,3,3
45.7783,2,1
45.7784,0,0
45.7784,0,0
45.7824,0,1
45.7825,2,2
45.7866,3,2
45.7866,1,2
45.7906,4,3
45.7906,2,0
45.7906,0,1
45.7947,3,4
45.7947,3,1
45.7989,-1,-1
45.7989,-1,-1
45.8029,0,1
45.8029,3,1
45.8029,0,0
45.807,3,9
45.807,15,14
45.8111,9,4
45.8111,1,-1
45.8151,-2,-2
45.8151,0,4
45.8152,6,0
45.8193,-4,-4
45.8193,-2,2
45.8234,1,-1
45.8234,-5,-9
45.8275,-9,-6
45.8275,-2,2
45.8275,8,12
45.8316,11,9
45.8316,8,9
45.8357,10,7
45.8357,3,2
45.8398,3,2
45.8398,-1,-4
45.8399,-5,-6
45.844,-5,-3
45.844,0,4
45.848,7,9
45.8481,11,10
45.8521,8,0
45.8521,-8,-8
45.8522,-2,3
45.8561,3,0
45.8562,-3,-3
45.8603,-2,0
45.8603,2,4
45.8644,7,11
45.8644,10,10
45.8645,5,0
45.8685,-6,-10
45.8685,-9,-6
45.8725,-2,2
45.8725,4,5
45.8767,5,3
45.8767,1,4
45.8767,7,9
45.8807,9,7
45.8807,6,2
45.8849,0,-3
45.8849,-5,-3
45.889,-1,0
45.889,1,3
45.8891,6,6
45.893,5,1
45.893,-2,-2
45.8972,0,1
45.8972,0,0
45.9013,-1,0
45.9013,1,3
45.9013,5,5
45.9053,5,5
45.9053,4,2
45.9094,0,-1
45.9094,-1,0
45.9136,1,0
45.9136,-1,-3
45.9136,-5,-4
45.9176,0,5
45.9176,8,8
45.9217,7,6
45.9217,4,2
45.9258,-1,-1
45.9258,1,3
45.9258,4,5
45.9299,6,5
45.9299,3,2
45.9341,0,-3
45.9341,-6,-7
45.938,-5,-3
45.938,0,2
45.938,3,5
45.9422,7,7
45.9422,7,6
45.9463,4,4
45.9463,2,1
45.9503,0,0
45.9503,1,0
45.9504,0,0
45.9544,0,0
45.9544,1,1
45.9586,1,2
45.9587,3,3
45.9627,3,5
45.9627,6,7
45.9627,6,4
45.9668,0,-2
45.9668,-4,-3
45.9708,0,0
45.9708,1,1
45.9709,0,1
45.9749,1,0
45.9749,-1,0
45.9791,1,2
45.9791,2,4
45.9832,7,6
45.9832,3,0
45.9832,0,0
45.9873,1,2
45.9873,2,3
45.9913,3,2
45.9913,1,0
45.9955,0,0
45.9955,-1,0
45.9955,0,2
45.9995,3,2
45.9995,1,1
46.0036,2,4
46.0036,3,2
46.0077,1,0
46.0078,0,1
46.0078,2,2
46.0118,3,3
46.0118,1,0
46.0159,0,0
46.016,-1,0
46.02,0,2
46.0201,4,5
46.0201,3,2
46.024,2,2
46.0241,3,3
46.0282,4,3
46.0282,2,2
46.0324,1,0
46.0324,0,0
46.0325,0,-1
46.0364,-1,-1
46.0364,0,1
46.0405,1,2
46.0405,4,5
46.0446,3,3
46.0446,4,4
46.0446,4,2
46.0487,1,1
46.0487,0,0
46.0527,0,0
46.0528,-1,-1
46.0568,0,1
46.0568,1,1
46.0568,2,4
46.0609,5,5
46.0609,3,2
46.065,2,2
46.065,2,1
46.065,0,0
46.0691,0,0
46.0691,0,0
46.0732,1,1
46.0732,2,2
46.0773,1,1
46.0774,1,2
46.0774,2,2
46.0814,2,1
46.0814,0,0
46.0855,1,2
46.0855,2,2
46.0896,1,1
46.0896,3,4
46.0897,3,3
46.0937,2,0
46.0937,0,0
46.0978,0,0
46.0978,1,0
46.1018,0,1
46.1019,1,1
46.1019,2,2
46.106,2,2
46.106,3,3
46.1101,3,3
46.1102,3,1
46.1143,0,0
46.1143,0,0
46.1143,0,0
46.1184,1,2
46.1184,3,3
46.1224,2,2
46.1224,2,3
46.1266,5,4
46.1266,3,1
46.1266,-1,0
46.1306,0,1
46.1306,1,0
46.1347,0,0
46.1347,0,0
46.1387,1,1
46.1387,2,2
46.1387,2,2
46.1428,2,4
46.1429,6,6
46.1469,5,3
46.1469,0,0
46.147,0,0
46.151,0,0
46.151,0,-1
46.1551,0,0
46.1551,1,3
46.1593,5,3
46.1593,1,0
46.1593,0,0
46.1634,1,2
46.1634,4,5
46.1675,5,3
46.1675,1,0
46.1715,0,0
46.1715,1,1
46.1715,0,1
46.1757,1,1
46.1757,1,0
46.1798,0,0
46.1798,0,2
46.1839,2,2
46.1839,3,3
46.1839,2,2
46.1879,1,1
46.1879,2,3
46.192,3,1
46.192,0,0
46.1961,0,0
46.1961,2,2
46.1961,2,0
46.2001,0,0
46.2002,1,4
46.2043,6,5
46.2043,3,2
46.2084,2,2
46.2084,1,1
46.2084,1,1
46.2124,1,0
46.2124,0,0
46.2165,1,1
46.2166,1,0
46.2207,0,0
46.2207,1,3
46.2207,5,5
46.2248,4,1
46.2248,1,1
46.2288,2,2
46.2288,2,1
46.2288,1,0
46.2329,0,0
46.2329,0,0
46.237,0,0
46.237,0,1
46.2413,3,4
46.2413,4,3
46.2413,3,3
46.2453,2,2
46.2453,2,2
46.2494,2,1
46.2494,1,0
46.2534,0,0
46.2534,0,1
46.2534,1,1
46.2576,1,1
46.2576,1,1
46.2617,2,2
46.2617,1,2
46.2658,3,3
46.2658,2,2
46.2659,1,1
46.2699,1,1
46.2699,1,1
46.2739,0,0
46.2739,1,2
46.2781,1,0
46.2781,0,0
46.2781,2,3
46.2831,3,3
46.2831,3,3
46.2862,3,2
46.2862,2,1
46.2904,1,0
46.2904,1,2
46.2904,3,2
46.2944,0,0
46.2944,0,0
46.2985,0,1
46.2985,1,1
46.3026,1,1
46.3026,2,2
46.3026,2,1
46.3067,1,2
46.3067,2,3
46.3108,4,3
46.3108,2,1
46.3108,0,0
46.3148,0,0
46.3148,0,0
46.3189,1,1
46.3189,2,2
46.3232,2,3
46.3232,3,2
46.3232,2,2
46.3271,1,1
46.3271,1,1
46.3314,2,1
46.3314,1,1
46.3353,1,1
46.3354,0,0
46.3354,1,2
46.3395,2,2
46.3395,1,1
46.3436,1,1
46.3436,3,3
46.3477,3,2
46.3477,2,2
46.3477,2,1
46.3517,1,1
46.3517,1,0
46.3559,0,0
46.3559,0,0
46.36,1,2
46.36,3,2
46.36,1,1
46.3641,2,2
46.3641,2,2
46.3681,3,3
46.3681,3,2
46.3723,1,1
46.3723,1,1
46.3723,0,0
46.3764,0,0
46.3764,1,1
46.3805,2,2
46.3805,2,2
46.3845,2,2
46.3845,2,2
46.3845,3,2
46.3886,2,2
46.3886,1,1
46.3927,1,1
46.3927,0,0
46.3927,1,1
46.3968,1,0
46.3968,1,1
46.4009,1,1
46.401,1,1
46.405,1,3
46.405,5,4
46.405,3,2
46.4091,0,1
46.4091,1,1
46.4132,1,1
46.4132,0,0
46.4173,0,0
46.4173,0,1
46.4173,2,3
46.4214,3,2
46.4214,3,3
46.4255,3,2
46.4255,2,2
46.4295,2,1
46.4295,0,0
46.4296,0,0
46.4336,2,2
46.4336,3,2
46.4377,0,0
46.4378,0,0
46.4418,1,2
46.4418,2,2
46.4418,2,3
46.4459,3,2
46.4459,2,2
46.45,2,2
46.45,2,1
46.4542,0,0
46.4542,0,0
46.4543,0,0
46.4583,1,1
46.4583,2,3
46.4624,3,3
46.4624,2,3
46.4664,4,5
46.4664,4,2
46.4664,1,0
46.4705,0,0
46.4705,0,0
46.4746,0,0
46.4746,0,1
46.4746,1,2
46.4786,2,2
46.4787,3,2
46.4828,1,1
46.4828,2,4
46.4869,5,5
46.487,4,1
46.487,0,0
46.491,0,0
46.491,0,0
46.495,0,1
46.4951,0,0
46.4991,0,0
46.4992,2,5
46.4992,6,4
46.5033,2,1
46.5033,2,3
46.5074,2,3
46.5074,3,2
46.5115,1,1
46.5116,1,0
46.5116,0,0
46.5156,0,0
46.5156,0,0
46.5197,0,1
46.5197,1,2
46.5238,2,3
46.5238,3,4
46.5238,3,2
46.5278,0,0
46.5278,1,2
46.532,1,1
46.532,1,1
46.5361,0,1
46.5361,1,0
46.5361,0,0
46.5402,1,3
46.5402,3,4
46.5443,3,3
46.5443,3,2
46.5484,2,2
46.5484,1,0
46.5484,0,1
46.5524,1,1
46.5524,0,0
46.5566,1,0
46.5566,1,1
46.5566,1,1
46.5606,2,2
46.5606,2,2
46.5647,3,3
46.5647,2,1
46.5688,1,1
46.5688,1,0
46.569,0,1
46.5729,1,1
46.5729,1,0
46.577,0,1
46.577,2,3
46.5811,3,3
46.5811,2,2
46.5811,2,3
46.5853,4,4
46.5854,2,1
46.5894,0,0
46.5894,0,0
46.5934,1,1
46.5935,1,1
46.5935,0,0
46.5975,0,0
46.5976,1,2
46.6016,2,2
46.6016,2,2
46.6057,3,3
46.6057,2,1
46.6057,1,1
46.6098,1,1
46.6098,1,0
46.6139,0,0
46.6139,0,1
46.6179,1,1
46.618,1,1
46.618,1,2
46.6221,4,4
46.6221,4,4
46.6262,3,2
46.6262,0,0
46.6303,0,1
46.6304,1,1
46.6304,0,0
46.6343,1,1
46.6343,1,1
46.6385,1,1
46.6385,1,2
46.6385,2,3
46.6425,3,2
46.6425,1,1
46.6466,2,3
46.6466,3,2
46.6507,2,0
46.6507,0,0
46.6507,0,0
46.6549,0,0
46.6549,0,2
46.659,3,2
46.659,1,1
46.6631,2,4
46.6631,4,3
46.6631,2,2
46.6671,2,2
46.6671,1,1
46.6713,1,0
46.6713,0,0
46.6754,0,0
46.6754,0,1
46.6754,2,2
46.6794,2,2
46.6794,1,1
46.6835,2,3
46.6835,4,3
46.6876,3,2
46.6876,2,1
46.6876,1,1
46.6916,0,0
46.6917,0,0
46.6958,1,0
46.6958,0,0
46.6998,1,2
46.6998,2,3
46.6999,3,2
46.704,3,3
46.7041,3,2
46.7082,2,2
46.7082,1,1
46.7122,0,0
46.7122,0,1
46.7122,2,2
46.7163,1,1
46.7163,1,2
46.7205,2,2
46.7205,1,0
46.7205,1,2
46.7245,3,3
46.7245,2,2
46.7285,1,1
46.7286,1,1
46.7327,0,0
46.7327,1,0
46.7327,0,1
46.7367,1,0
46.7368,1,1
46.7408,2,4
46.7409,4,4
46.7449,2,2
46.745,1,0
46.745,1,1
46.749,1,2
46.749,1,1
46.7532,0,0
46.7532,0,0
46.7573,1,1
46.7573,1,1
46.7573,2,2
46.7613,2,2
46.7613,2,2
46.7654,3,2
46.7654,2,2
46.7696,2,2
46.7696,1,1
46.7696,1,0
46.7736,0,0
46.7736,0,0
46.7777,0,0
46.7777,1,2
46.7817,2,3
46.7818,3,2
46.7818,3,3
46.7859,3,2
46.7859,2,2
46.79,2,2
46.79,1,0
46.7941,0,0
46.7941,0,1
46.7941,1,1
46.7982,1,1
46.7982,1,2
46.8023,2,3
46.8023,3,2
46.8024,2,2
46.8063,2,2
46.8064,2,1
46.8104,1,1
46.8104,1,1
46.8145,0,0
46.8146,0,1
46.8146,1,0
46.8186,0,1
46.8186,2,3
46.8227,4,4
46.8227,2,2
46.8268,2,2
46.8268,2,2
46.8269,1,1
46.8309,1,1
46.8309,1,0
46.8351,0,0
46.8351,0,0
46.8391,0,0
46.8391,2,4
46.8391,4,3
46.8432,3,4
46.8432,3,2
46.8473,0,0
46.8474,1,2
46.8514,2,2
46.8514,1,1
46.8515,0,0
46.8555,0,0
46.8555,0,0
46.8596,2,2
46.8596,2,3
46.8637,2,2
46.8637,3,3
46.8637,3,2
46.8678,3,2
46.8678,2,1
46.872,1,0
46.872,0,0
46.8761,0,1
46.8761,1,1
46.8761,1,1
46.8801,1,1
46.8801,2,2
46.8842,3,4
46.8842,3,3
46.8842,3,1
46.8883,1,0
46.8884,0,0
46.8924,0,0
46.8925,0,0
46.8965,1,1
46.8965,1,1
46.8965,1,1
46.9006,1,2
46.9006,2,3
46.9047,3,3
46.9048,1,1
46.9088,1,1
46.9088,1,1
46.9089,1,0
46.9128,0,0
46.9128,0,1
46.917,1,1
46.917,2,2
46.9211,2,2
46.9211,3,3
46.9211,2,2
46.9251,2,2
46.9251,2,2
46.9293,1,1
46.9293,0,0
46.9333,0,0
46.9334,0,0
46.9334,1,1
46.9374,1,1
46.9374,1,1
46.9415,1,2
46.9415,2,3
46.9456,5,4
46.9456,3,2
46.9456,1,1
46.9497,1,1
46.9497,1,0
46.9539,0,0
46.9539,0,0
46.9579,0,2
46.9579,2,2
46.958,2,2
46.962,3,2
46.962,3,3
46.9661,3,2
46.9661,2,2
46.9661,2,2
46.9703,2,1
46.9703,1,0
46.9744,0,0
46.9744,0,0
46.9784,1,2
46.9784,2,2
46.9784,2,2
46.9825,3,3
46.9826,3,3
46.9866,3,3
46.9867,3,1
46.9907,0,0
46.9907,0,0
46.9908,0,0
46.9948,1,2
46.9948,2,1
46.999,1,0
46.9991,1,2
47.0031,3,3
47.0031,4,4
47.0031,3,3
47.0071,2,1
47.0071,1,1
47.0112,0,0
47.0112,0,0
47.0153,0,0
47.0153,1,0
47.0153,0,0
47.0194,2,2
47.0194,3,2
47.0235,2,3
47.0235,3,4
47.0276,3,3
47.0276,2,1
47.0276,1,1
47.0317,0,0
47.0317,0,0
47.0358,0,0
47.0359,1,1
47.0398,1,1
47.0398,2,2
47.0398,2,3
47.0439,3,3
47.0439,2,2
47.048,2,2
47.048,1,1
47.048,1,1
47.0521,1,0
47.0521,0,0
47.0561,0,0
47.0561,1,2
47.0603,4,3
47.0603,2,1
47.0603,1,2
47.0644,2,3
47.0644,3,2
47.0685,2,2
47.0685,2,1
47.0726,0,0
47.0726,0,0
47.0726,0,1
47.0766,1,1
47.0767,2,2
47.0808,2,2
47.0808,1,2
47.0849,3,3
47.0849,3,3
47.0849,2,1
47.089,1,1
47.089,0,0
47.0931,0,0
47.0931,0,0
47.0972,0,1
47.0972,0,0
47.0972,1,2
47.1013,2,2
47.1013,3,3
47.1053,3,2
47.1053,2,1
47.1094,1,1
47.1094,1,1
47.1094,1,0
47.1135,0,1
47.1135,1,1
47.1177,1,1
47.1177,1,1
47.1217,1,2
47.1217,2,2
47.1217,3,4
47.1258,4,4
47.1258,2,1
47.1299,1,0
47.13,0,0
47.13,0,0
47.1341,0,1
47.1341,1,1
47.1381,1,1
47.1381,1,2
47.1423,2,2
47.1423,2,3
47.1423,3,3
47.1463,1,1
47.1463,1,1
47.1504,1,1
47.1504,0,0
47.1545,0,0
47.1545,0,2
47.1545,2,2
47.1586,2,2
47.1586,3,2
47.1626,2,2
47.1627,2,3
47.1669,3,2
47.1669,2,2
47.1669,3,2
47.1709,1,0
47.1709,0,0
47.175,0,0
47.175,0,1
47.1791,2,1
47.1791,0,1
47.1791,3,3
47.1832,4,4
47.1832,2,1
47.1873,2,2
47.1873,2,2
47.1914,2,1
47.1914,1,0
47.1914,0,0
47.1954,0,0
47.1954,0,0
47.1996,1,2
47.1996,3,3
47.2037,3,3
47.2037,3,3
47.2037,2,2
47.2077,2,2
47.2077,1,0
47.2119,0,0
47.2119,0,1
47.2159,1,1
47.216,2,2
47.216,1,1
47.2201,0,1
47.2201,1,2
47.2241,2,3
47.2241,3,3
47.2242,3,3
47.2282,1,1
47.2282,0,0
47.2323,0,0
47.2324,0,0
47.2364,0,0
47.2364,1,2
47.2364,3,3
47.2405,1,2
47.2405,2,3
47.2446,3,3
47.2446,2,2
47.2488,2,2
47.2488,2,1
47.2488,0,0
47.2528,1,1
47.2528,1,0
47.2569,0,0
47.2569,0,1
47.261,2,2
47.261,2,3
47.261,3,2
47.2651,2,2
47.2652,2,2
47.2692,1,1
47.2692,1,1
47.2733,0,0
47.2733,0,1
47.2733,0,0
47.2773,0,2
47.2773,2,3
47.2815,2,2
47.2815,2,2
47.2856,2,3
47.2856,3,2
47.2856,2,2
47.2897,1,1
47.2897,0,0
47.2938,0,0
47.2938,1,1
47.2979,1,1
47.2979,1,1
47.2979,1,2
47.3019,2,2
47.302,3,3
47.306,4,2
47.306,2,1
47.306,1,1
47.3101,2,2
47.3101,2,1
47.3142,1,0
47.3142,0,0
47.3183,0,0
47.3183,2,3
47.3183,3,2
47.3224,2,2
47.3224,2,2
47.3265,2,2
47.3265,2,1
47.3306,1,1
47.3307,1,1
47.3307,1,1
47.3347,0,0
47.3347,1,0
47.3388,0,0
47.3388,2,3
47.3429,2,2
47.3429,2,2
47.3429,1,2
47.347,3,4
47.347,3,2
47.3511,1,0
47.3511,0,0
47.3552,0,0
47.3552,0,0
47.3552,1,1
47.3593,2,2
47.3593,2,2
47.3634,2,2
47.3634,3,2
47.3675,3,3
47.3675,2,1
47.3675,0,1
47.3715,1,0
47.3715,0,0
47.3757,0,0
47.3757,1,1
47.3798,1,1
47.3798,1,1
47.3798,2,3
47.3838,3,4
47.3839,3,2
47.388,2,2
47.388,2,2
47.388,1,1
47.3921,1,0
47.3921,0,0
47.3961,0,0
47.3962,0,1
47.4003,1,2
47.4004,2,2
47.4004,3,3
47.4043,2,2
47.4043,2,2
47.4084,2,1
47.4084,2,2
47.4126,1,0
47.4126,0,0
47.4126,0,0
47.4166,1,0
47.4166,0,1
47.4207,2,3
47.4207,3,4
47.4248,3,3
47.4249,3,2
47.4249,1,1
47.4289,1,1
47.4289,0,0
47.433,0,0
47.433,0,0
47.4371,2,1
47.4371,1,1
47.4371,1,1
47.4412,2,3
47.4412,3,2
47.4453,2,3
47.4454,2,2
47.4494,2,2
47.4494,2,2
47.4494,1,1
47.4535,0,0
47.4535,0,0
47.4576,1,1
47.4576,0,2
47.4617,2,3
47.4617,2,3
47.4617,4,3
47.4658,2,2
47.4658,2,2
47.4699,2,2
47.4699,1,1
47.4699,0,0
47.4739,0,0
47.4739,0,1
47.4781,1,2
47.4781,3,3
47.4822,2,1
47.4822,1,1
47.4822,1,2
47.4863,3,3
47.4863,2,1
47.4904,1,1
47.4904,1,0
47.4945,0,0
47.4945,0,0
47.4945,1,2
47.4985,2,3
47.4985,2,2
47.5026,1,1
47.5026,2,3
47.5067,5,3
47.5067,2,1
47.5067,1,1
47.5108,1,1
47.5108,1,1
47.5149,1,0
47.515,0,0
47.519,0,0
47.519,2,2
47.519,3,3
47.5231,3,3
47.5231,1,2
47.5272,2,2
47.5272,3,2
47.5313,1,0
47.5313,0,0
47.5314,1,0
47.5354,0,0
47.5354,0,0
47.5395,0,2
47.5395,3,2
47.5436,2,3
47.5436,3,3
47.5436,2,2
47.5477,3,2
47.5477,2,1
47.5518,1,0
47.5518,0,0
47.5518,0,1
47.5558,2,2
47.5559,1,1
47.56,1,1
47.56,1,2
47.5641,2,3
47.5641,4,3
47.5641,3,2
47.5682,2,1
47.5682,0,0
47.5723,0,0
47.5723,0,1
47.5771,2,1
47.5771,1,0
47.5771,1,1
47.5804,2,2
47.5804,2,2
47.5845,2,3
47.5846,2,2
47.5887,2,2
47.5887,1,1
47.5887,1,1
47.5927,2,1
47.5927,0,0
47.5969,0,0
47.597,0,1
47.601,2,2
47.601,2,2
47.601,3,3
47.605,2,2
47.6051,2,2
47.6092,1,1
47.6092,1,1
47.6133,1,1
47.6133,0,0
47.6133,0,0
47.6173,1,1
47.6173,1,1
47.6214,2,2
47.6214,3,2
47.6255,3,3
47.6255,3,2
47.6255,2,1
47.6297,1,1
47.6297,0,0
47.6337,1,0
47.6337,1,1
47.6337,1,1
47.6378,1,1
47.6378,1,1
47.6419,3,3
47.6419,3,2
47.646,2,2
47.6461,2,2
47.6461,1,1
47.6501,0,0
47.6501,0,0
47.6542,1,1
47.6542,0,0
47.6583,1,1
47.6583,1,2
47.6583,4,3
47.6624,3,3
47.6624,2,3
47.6665,2,2
47.6665,2,2
47.6706,2,1
47.6706,1,0
47.6706,0,0
47.6746,0,0
47.6747,1,1
47.6788,1,1
47.6789,1,2
47.6829,2,2
47.6829,2,2
47.6829,3,2
47.687,3,3
47.687,2,1
47.691,0,0
47.6911,0,0
47.6952,0,0
47.6952,1,1
47.6952,1,2
47.6993,3,3
47.6993,3,2
47.7033,2,2
47.7033,2,3
47.7074,3,2
47.7074,2,2
47.7075,2,2
47.7116,1,1
47.7116,0,0
47.7156,0,0
47.7156,0,0
47.7156,1,2
47.7197,3,3
47.7197,2,3
47.7238,3,3
47.7238,2,2
47.7281,2,2
47.7281,3,1
47.7281,0,0
47.732,0,0
47.732,0,0
47.7362,1,2
47.7362,1,0
47.7402,2,2
47.7402,3,3
47.7402,3,2
47.7444,2,2
47.7444,3,3
47.7484,2,1
47.7484,1,0
47.7526,0,0
47.7526,0,0
47.7526,0,0
47.7565,0,0
47.7565,2,2
47.7607,2,2
47.7607,3,3
47.7648,3,3
47.7648,3,2
47.7648,2,2
47.7689,1,0
47.7689,1,3
47.7729,3,1
47.773,0,0
47.7771,0,0
47.7771,1,1
47.7771,1,2
47.7811,3,3
47.7812,3,2
47.7854,2,2
47.7854,2,2
47.7893,2,2
47.7893,2,1
47.7894,0,0
47.7935,-1,-1
47.7935,0,0
47.7975,1,2
47.7975,2,3
47.7975,4,3
47.8017,4,3
47.8017,2,2
47.8057,2,2
47.8057,3,2
47.8099,2,1
47.8099,0,0
47.8099,0,0
47.814,0,0
47.814,0,0
47.818,1,1
47.818,2,2
47.8221,2,3
47.8221,3,3
47.8221,2,2
47.8263,2,2
47.8263,1,2
47.8304,3,1
47.8304,0,0
47.8344,0,0
47.8344,0,1
47.8344,1,1
47.8384,1,1
47.8385,1,2
47.8428,3,3
47.8428,3,2
47.8467,2,2
47.8467,2,2
47.8467,2,2
47.8508,1,0
47.8508,0,0
47.8549,0,0
47.8549,1,1
47.859,1,1
47.859,2,2
47.859,1,2
47.8632,4,4
47.8632,4,2
47.8672,1,1
47.8673,1,1
47.8713,1,1
47.8713,1,0
47.8713,0,1
47.8754,1,1
47.8754,1,1
47.8796,1,1
47.8796,1,1
47.8796,1,1
47.8835,3,3
47.8835,3,2
47.8876,1,1
47.8876,0,1
47.8919,1,1
47.8919,2,2
47.8919,1,1
47.8959,1,1
47.8959,2,2
47.9,2,2
47.9,2,3
47.904,2,2
47.904,2,2
47.904,1,1
47.9081,2,2
47.9082,2,1
47.9123,1,0
47.9123,0,0
47.9163,0,0
47.9163,0,0
47.9163,1,2
47.9204,3,3
47.9205,3,2
47.9245,2,3
47.9245,2,1
47.9286,1,0
47.9287,0,1
47.9287,1,1
47.9327,1,1
47.9327,0,1
47.9368,2,2
47.9368,2,2
47.941,3,2
47.941,3,3
47.941,3,2
47.945,2,2
47.945,3,2
47.9491,2,1
47.9491,1,1
47.9531,1,0
47.9532,0,0
47.9532,0,0
47.9573,1,1
47.9573,2,2
47.9614,2,2
47.9614,3,3
47.9654,2,2
47.9654,2,2
47.9655,2,2
47.9695,2,2
47.9695,1,0
47.9737,0,0
47.9737,0,0
47.9737,0,0
47.9779,1,1
47.9779,3,3
47.9819,3,2
47.9819,2,3
47.986,3,3
47.986,2,2
47.986,2,1
47.9901,1,1
47.9901,1,1
47.9942,0,0
47.9942,0,1
47.9983,0,0
47.9984,0,1
47.9984,2,3
48.0024,3,2
48.0024,2,2
48.0065,3,3
48.0065,2,2
48.0105,3,2
48.0105,1,0
48.0106,0,0
48.0146,0,0
48.0146,0,0
48.0187,0,2
48.0187,3,3
48.0228,3,3
48.0228,3,2
48.0228,2,2
48.027,2,2
48.027,2,1
48.0311,0,1
48.0311,1,1
48.0351,0,0
48.0351,0,0
48.0352,0,0
48.0392,1,4
48.0392,5,5
48.0433,3,2
48.0433,1,1
48.0434,1,1
48.0474,1,2
48.0474,2,2
48.0515,1,0
48.0515,1,0
48.0556,0,0
48.0556,0,0
48.0557,1,2
48.0597,2,3
48.0597,3,3
48.0638,3,2
48.0638,2,2
48.0679,3,2
48.0679,2,1
48.068,1,0
48.072,0,0
48.072,1,0
48.0762,1,1
48.0762,1,1
48.0802,1,2
48.0802,2,2
48.0802,2,2
48.0843,3,2
48.0844,2,2
48.0884,1,1
48.0884,1,1
48.0926,1,1
48.0926,0,0
48.0926,1,0
48.0965,0,1
48.0965,2,3
48.1007,3,3
48.1007,2,1
48.1047,1,1
48.1047,2,2
48.1047,2,2
48.1089,2,1
48.1089,1,1
48.113,0,0
48.113,0,0
48.117,0,1
48.1171,1,2
48.1171,2,3
48.1211,3,2
48.1211,2,2
48.1254,2,2
48.1254,2,2
48.1254,2,2
48.1294,2,1
48.1294,1,1
48.1333,0,1
48.1334,1,1
48.1375,2,2
48.1375,2,1
48.1375,1,2
48.1416,2,2
48.1417,2,2
48.1457,2,2
48.1457,2,1
48.1498,1,1
48.1499,1,0
48.1499,0,0
48.1538,0,1
48.1538,1,1
48.158,1,1
48.158,2,2
48.1621,3,3
48.1621,2,2
48.1622,2,2
48.1662,2,3
48.1662,4,2
48.1703,0,0
48.1703,0,0
48.1744,0,0
48.1745,0,0
48.1745,0,0
48.1784,1,2
48.1784,3,3
48.1825,2,2
48.1825,2,2
48.1866,2,2
48.1866,2,2
48.1866,1,2
48.1909,2,1
48.1909,0,0
48.1949,1,0
48.1949,0,0
48.1989,1,2
48.1989,3,3
48.199,3,3
48.203,3,1
48.203,1,2
48.2073,2,2
48.2073,2,2
48.2113,2,1
48.2113,0,1
48.2113,0,0
48.2153,0,0
48.2154,1,2
48.2194,2,1
48.2194,1,1
48.2194,1,2
48.2235,3,3
48.2235,3,1
48.2276,1,1
48.2276,3,3
48.2317,2,1
48.2317,0,0
48.2317,0,0
48.2358,1,1
48.2358,1,1
48.2399,1,2
48.2399,2,2
48.244,2,2
48.244,2,2
48.2441,3,2
48.2481,2,1
48.2481,1,1
48.2521,2,2
48.2522,1,0
48.2563,0,0
48.2563,0,0
48.2563,2,2
48.2603,2,2
48.2603,3,2
48.2644,3,3
48.2644,3,2
48.2685,2,2
48.2685,2,1
48.2685,1,1
48.2726,0,0
48.2727,0,0
48.2767,1,1
48.2768,1,1
48.2808,1,1
48.2808,2,2
48.2808,3,3
48.2849,2,2
48.2849,2,1
48.2891,1,2
48.2891,2,1
48.2931,1,0
48.2931,0,0
48.2931,0,0
48.2972,1,1
48.2972,1,1
48.3013,2,2
48.3013,3,2
48.3054,3,4
48.3054,3,2
48.3054,2,3
48.3095,3,3
48.3095,2,0
48.3136,0,0
48.3136,0,0
48.3136,0,0
48.3177,0,1
48.3177,1,2
48.3218,2,3
48.3218,3,3
48.3259,2,2
48.3259,1,1
48.3259,1,1
48.3299,2,2
48.3299,1,1
48.3341,0,0
48.3341,1,1
48.3383,1,1
48.3383,1,1
48.3383,2,3
48.3423,3,4
48.3423,2,2
48.3463,1,1
48.3463,1,1
48.3505,1,1
48.3505,2,1
48.3505,0,0
48.3559,0,0
48.3559,0,1
48.3586,2,2
48.3587,2,3
48.3627,2,3
48.3627,3,3
48.3628,2,2
48.3668,3,3
48.3668,2,1
48.371,0,0
48.371,0,1
48.375,0,0
48.375,0,0
48.375,0,1
48.3791,1,2
48.3791,3,3
48.3833,3,2
48.3833,2,2
48.3873,2,3
48.3873,2,1
48.3874,0,1
48.3914,2,1
48.3914,0,0
48.3956,0,0
48.3956,0,0
48.3956,0,2
48.3996,3,3
48.3996,3,3
48.4038,3,2
48.4038,2,3
48.4078,2,2
48.4078,2,1
48.4078,0,0
48.4119,0,0
48.4119,0,0
48.416,0,0
48.416,0,1
48.4201,2,3
48.4202,3,2
48.4202,2,2
48.4242,3,3
48.4242,3,2
48.4283,2,1
48.4283,1,0
48.4324,0,0
48.4324,0,0
48.4324,1,2
48.4365,2,1
48.4365,0,1
48.4406,2,4
48.4406,5,3
48.4446,2,1
48.4447,1,1
48.4447,2,2
48.4487,2,1
48.4488,1,1
48.4529,0,0
48.4529,0,0
48.457,0,0
48.457,0,1
48.457,1,2
48.461,2,3
48.461,2,2
48.4651,3,3
48.4652,3,2
48.4652,2,2
48.4693,1,1
48.4693,1,0
48.4733,0,0
48.4733,0,0
48.4775,1,1
48.4775,2,2
48.4775,2,3
48.4815,3,3
48.4815,2,2
48.4856,3,3
48.4856,2,2
48.4898,1,0
48.4898,0,0
48.4898,1,1
48.4938,0,0
48.4938,0,0
48.4979,1,1
48.4979,1,2
48.5021,2,2
48.5021,2,2
48.5021,3,3
48.5061,3,3
48.5061,2,1
48.5102,1,1
48.5102,2,1
48.5143,0,0
48.5143,0,0
48.5143,1,2
48.5184,2,3
48.5184,3,3
48.5225,3,3
48.5225,1,2
48.5266,2,2
48.5266,2,2
48.5266,2,1
48.5307,1,1
48.5307,0,0
48.5349,0,0
48.5349,0,0
48.539,1,1
48.539,2,3
48.539,3,3
48.543,3,3
48.543,3,2
48.5471,2,2
48.5472,3,2
48.5472,1,0
48.5512,0,0
48.5512,0,0
48.5554,0,0
48.5554,1,1
48.5594,1,1
48.5595,1,1
48.5595,2,2
48.5635,3,3
48.5635,3,3
48.5676,2,2
48.5676,2,2
48.5716,1,1
48.5716,1,1
48.5717,0,0
48.5757,0,0
48.5757,0,0
48.5798,2,2
48.5798,3,2
48.584,3,3
48.584,3,2
48.584,2,2
48.5881,2,2
48.5881,1,1
48.5922,1,0
48.5922,0,0
48.5963,1,1
48.5964,1,1
48.5964,1,1
48.6003,1,2
48.6003,2,3
48.6044,3,2
48.6044,2,2
48.6085,1,1
48.6085,1,1
48.6085,1,0
48.6126,0,1
48.6126,0,0
48.6167,1,1
48.6167,1,1
48.6208,2,2
48.6209,3,3
48.6209,3,2
48.6248,2,2
48.6249,2,2
48.629,1,1
48.629,1,1
48.629,1,1
48.6331,0,0
48.6331,0,0
48.6372,0,1
48.6372,1,2
48.6413,1,1
48.6413,2,3
48.6413,4,3
48.6453,2,2
48.6453,2,2
48.6494,2,1
48.6494,0,0
48.6536,0,0
48.6536,1,1
48.6536,0,0
48.6576,1,2
48.6576,2,2
48.6617,3,2
48.6617,3,4
48.6659,3,2
48.6659,2,2
48.6659,2,2
48.67,1,1
48.67,1,0
48.6741,0,0
48.6741,0,0
48.6782,0,0
48.6782,1,2
48.6782,2,3
48.6823,2,2
48.6823,2,2
48.6863,3,3
48.6863,2,2
48.6904,2,2
48.6904,1,1
48.6904,0,0
48.6945,0,0
48.6945,0,1
48.6986,2,2
48.6986,2,2
48.7027,3,3
48.7027,2,2
48.7027,1,2
48.7068,2,2
48.7068,2,1
48.7109,0,0
48.7109,0,0
48.7109,0,0
48.715,1,1
48.715,1,2
48.7191,2,2
48.7191,2,2
48.7233,3,3
48.7233,3,3
48.7233,3,2
48.7273,1,2
48.7273,2,2
48.7314,2,1
48.7314,1,0
48.7356,0,0
48.7356,0,1
48.7356,1,1
48.7396,1,2
48.7396,2,2
48.7437,3,3
48.7437,2,2
48.7478,3,3
48.7478,2,1
48.7478,1,1
48.7519,1,1
48.7519,0,0
48.7559,0,0
48.7559,0,1
48.76,3,3
48.7601,3,3
48.7601,1,2
48.7641,2,2
48.7641,2,2
48.7683,1,1
48.7683,1,1
48.7723,0,0
48.7723,0,1
48.7723,1,1
48.7764,0,0
48.7764,1,2
48.7806,3,3
48.7806,3,3
48.7846,3,3
48.7846,2,2
48.7846,2,2
48.7887,2,2
48.7887,3,2
48.7928,0,0
48.7928,-1,0
48.7969,0,0
48.7969,0,0
48.7969,2,2
48.801,3,3
48.8011,3,3
48.8051,2,2
48.8052,3,2
48.8052,2,2
48.8092,1,1
48.8092,1,0
48.8133,0,0
48.8133,0,0
48.8174,1,2
48.8174,2,2
48.8174,2,2
48.8214,3,3
48.8214,2,2
48.8255,2,1
48.8255,2,2
48.8297,2,1
48.8297,0,0
48.8297,0,0
48.8338,1,0
48.8338,0,0
48.8379,2,2
48.8379,2,3
48.842,2,3
48.842,3,4
48.842,3,3
48.8461,2,1
48.8461,1,1
48.8502,1,1
48.8502,0,0
48.8543,0,0
48.8543,0,0
48.8543,0,0
48.8583,2,2
48.8583,2,2
48.8624,3,3
48.8625,3,4
48.8666,2,2
48.8666,2,2
48.8666,2,1
48.8706,1,0
48.8706,0,0
48.8747,0,0
48.8747,0,0
48.8748,1,2
48.8788,2,2
48.8788,2,1
48.8829,1,2
48.8829,3,3
48.887,3,3
48.887,3,2
48.8871,2,1
48.8911,0,0
48.8911,0,0
48.8952,0,0
48.8952,0,1
48.8993,1,1
48.8994,2,2
48.8994,2,2
48.9034,2,3
48.9034,3,2
48.9075,2,2
48.9075,2,1
48.9116,0,0
48.9116,0,0
48.9116,0,0
48.9157,0,2
48.9157,2,2
48.9198,2,2
48.9198,3,2
48.9239,3,4
48.9239,4,4
48.9239,2,1
48.9279,1,0
48.9279,0,0
48.9321,0,1
48.9321,0,0
48.9361,0,0
48.9361,0,0
48.9361,2,3
48.9403,3,3
48.9403,4,2
48.9444,2,1
48.9444,1,2
48.9484,2,2
48.9484,1,1
48.9484,1,0
48.9525,0,0
48.9525,0,0
48.9567,1,2
48.9567,4,3
48.9567,3,2
48.9607,2,2
48.9607,3,2
48.9648,2,2
48.9649,2,2
48.9689,2,2
48.9689,0,0
48.969,0,0
48.973,0,0
48.973,0,0
48.9771,0,0
48.9771,1,2
48.9813,4,4
48.9813,2,2
48.9813,3,4
48.9853,3,3
48.9853,2,2
48.9894,1,0
48.9894,0,0
48.9935,0,0
48.9935,0,0
48.9935,0,1
48.9976,1,2
48.9976,2,2
49.0018,2,3
49.0018,3,3
49.0059,4,3
49.0059,2,2
49.0059,2,1
49.0099,1,0
49.0099,0,0
49.0141,0,1
49.0141,1,1
49.0182,0,1
49.0182,1,1
49.0182,2,2
49.0222,2,2
49.0222,3,3
49.0263,3,3
49.0263,2,1
49.0305,1,1
49.0305,1,0
49.0305,0,0
49.0345,0,0
49.0345,0,1
49.0386,3,3
49.0387,3,3
49.0387,3,1
49.0427,1,1
49.0427,1,1
49.0468,1,2
49.0468,2,2
49.0509,1,1
49.0509,1,0
49.0509,0,0
49.0549,0,0
49.0549,1,1
49.059,2,2
49.059,3,3
49.0632,3,4
49.0632,4,3
49.0632,2,2
49.0672,2,1
49.0672,2,1
49.0713,0,0
49.0713,0,0
49.0754,0,0
49.0754,1,1
49.0754,1,1
49.0796,1,1
49.0796,2,2
49.0837,3,3
49.0837,3,2
49.0878,2,2
49.0878,2,2
49.0878,2,1
49.0918,1,0
49.0919,0,0
49.096,0,0
49.096,0,2
49.1,2,2
49.1001,2,2
49.1001,3,3
49.1041,3,2
49.1041,2,2
49.1082,2,2
49.1082,2,1
49.1123,0,1
49.1123,0,0
49.1123,0,0
49.1165,0,0
49.1165,2,3
49.1206,2,2
49.1206,2,2
49.1206,2,3
49.1246,4,3
49.1246,2,1
49.1286,1,1
49.1286,1,1
49.1329,1,1
49.1329,0,0
49.1329,1,1
49.1369,1,1
49.1369,2,2
49.141,2,2
49.141,2,2
49.1451,3,2
49.1451,2,2
49.1451,2,2
49.1491,1,1
49.1491,1,0
49.1533,0,0
49.1533,0,0
49.1573,1,2
49.1573,2,2
49.1573,2,2
49.1614,2,3
49.1614,2,2
49.1656,2,2
49.1656,2,2
49.1696,2,1
49.1696,0,1
49.1696,0,0
49.1737,0,0
49.1737,0,0
49.1778,1,2
49.1779,3,4
49.182,3,4
49.182,3,3
49.182,3,2
49.186,1,1
49.186,1,1
49.1902,0,0
49.1902,0,0
49.1942,0,0
49.1942,0,1
49.1942,1,0
49.1984,0,2
49.1984,2,3
49.2025,2,3
49.2025,3,4
49.2025,3,2
49.2065,2,2
49.2065,2,1
49.2105,0,0
49.2106,0,0
49.2148,0,0
49.2148,0,0
49.2148,1,2
49.2188,2,3
49.2188,3,2
49.2229,3,3
49.2229,4,3
49.227,3,2
49.227,1,1
49.227,0,0
49.2313,0,0
49.2313,-1,0
49.2352,0,1
49.2352,1,1
49.2393,2,4
49.2393,4,4
49.2394,3,1
49.2434,2,2
49.2434,2,2
49.2476,2,2
49.2476,1,1
49.2516,0,0
49.2516,0,0
49.2516,0,0
49.2557,0,0
49.2557,0,1
49.2597,1,2
49.2597,2,4
49.2639,4,4
49.2639,3,3
49.2639,3,2
49.268,1,1
49.268,0,0
49.2721,0,0
49.2721,0,0
49.2761,0,0
49.2761,1,1
49.2761,2,2
49.2803,3,3
49.2803,2,3
49.2844,3,3
49.2844,2,2
49.2844,2,2
49.2884,2,2
49.2885,1,0
49.2924,0,0
49.2925,0,1
49.2968,1,0
49.2968,0,1
49.2968,3,3
49.3008,2,2
49.3008,3,1
49.3048,1,2
49.3048,2,2
49.3089,2,2
49.3089,1,1
49.3089,1,1
49.313,0,0
49.313,0,0
49.3171,0,1
49.3172,1,2
49.3212,3,3
49.3212,3,3
49.3213,3,3
49.3253,2,2
49.3253,3,3
49.3295,2,1
49.3295,0,0
49.3334,0,0
49.3334,0,0
49.3335,0,1
49.3375,1,1
49.3375,1,2
49.3416,2,3
49.3417,3,4
49.3458,4,3
49.3458,3,2
49.3458,1,1
49.3499,1,1
49.3499,1,1
49.354,0,0
49.354,0,0
49.354,0,1
49.358,2,3
49.358,3,3
49.3622,3,3
49.3622,3,2
49.3663,2,2
49.3663,2,1
49.3663,1,1
49.3704,1,1
49.3704,1,0
49.3744,0,0
49.3744,0,0
49.3786,0,1
49.3786,2,3
49.3786,3,3
49.3826,3,3
49.3827,3,2
49.3867,2,2
49.3867,2,2
49.3908,2,0
49.3908,1,0
49.3908,0,0
49.395,0,1
49.395,1,2
49.3991,2,1
49.3991,1,2
49.4031,2,3
49.4032,3,2
49.4032,2,2
49.4071,2,1
49.4071,1,2
49.4113,2,1
49.4113,0,0
49.4154,0,1
49.4154,1,0
49.4155,0,1
49.4194,2,3
49.4195,3,2
49.4236,2,3
49.4236,4,4
49.4277,3,2
49.4277,2,1
49.4277,1,0
49.4317,0,0
49.4318,0,0
49.4358,0,0
49.4358,0,1
49.4359,2,2
49.4399,2,2
49.44,2,3
49.444,3,2
49.444,3,2
49.4482,1,1
49.4482,1,2
49.4483,1,1
49.4523,0,0
49.4524,0,1
49.4563,1,0
49.4563,1,1
49.4606,2,2
49.4606,2,3
49.4606,3,2
49.4645,2,2
49.4645,2,3
49.4686,1,0
49.4686,1,1
49.4727,1,0
49.4727,0,0
49.4727,0,0
49.4768,0,1
49.4768,2,2
49.4809,2,2
49.4809,3,3
49.485,2,2
49.485,2,2
49.485,2,2
49.489,2,1
49.4891,1,0
49.4934,0,0
49.4934,0,0
49.4974,0,1
49.4974,2,3
49.4974,2,2
49.5014,3,3
49.5014,3,2
49.5056,1,1
49.5056,2,2
49.5096,2,2
49.5096,2,1
49.5096,1,0
49.5137,0,0
49.5138,0,0
49.5179,2,3
49.5179,3,2
49.5179,2,2
49.5219,2,2
49.5219,3,2
49.526,2,3
49.526,3,2
49.5301,1,0
49.5301,0,0
49.5301,0,0
49.5341,0,0
49.5341,0,1
49.5383,1,2
49.5383,2,3
49.5424,3,3
49.5424,3,3
49.5424,3,3
49.5465,3,2
49.5465,2,2
49.5505,1,0
49.5506,0,0
49.5546,0,0
49.5546,0,0
49.5546,0,1
49.5587,2,3
49.5587,3,2
49.5629,2,2
49.5629,3,2
49.567,2,2
49.567,2,1
49.567,1,1
49.571,1,1
49.5711,0,0
49.5751,0,0
49.5751,0,2
49.5792,2,2
49.5792,2,2
49.5792,3,2
49.5833,3,4
49.5833,3,2
49.5874,2,1
49.5874,1,1
49.5915,0,0
49.5915,0,1
49.5915,2,2
49.5956,1,1
49.5956,0,0
49.5997,1,2
49.5997,2,2
49.5997,2,2
49.6037,3,3
49.6037,1,1
49.6078,1,2
49.6079,3,2
49.612,1,0
49.6121,0,0
49.6121,0,0
49.6161,0,1
49.6161,1,2
49.6202,2,3
49.6202,2,3
49.6243,2,3
49.6243,5,4
49.6243,3,2
49.6284,1,0
49.6284,0,0
49.6324,0,0
49.6325,0,0
49.6366,1,0
49.6366,0,0
49.6366,2,3
49.6407,3,3
49.6407,2,2
49.6448,3,2
49.6448,2,1
49.6489,2,2
49.6489,2,1
49.6489,1,0
49.653,0,0
49.653,0,0
49.6571,1,2
49.6571,2,2
49.6611,2,2
49.6612,2,3
49.6612,3,3
49.6652,3,2
49.6652,1,1
49.6693,1,1
49.6693,2,1
49.6734,1,0
49.6734,0,0
49.6734,1,1
49.6777,1,1
49.6777,1,1
49.6817,1,2
49.6817,2,2
49.6857,3,3
49.6857,2,2
49.6857,2,2
49.6898,2,1
49.6898,1,1
49.694,1,1
49.694,0,0
49.694,0,0
49.6979,0,1
49.698,2,3
49.7021,3,3
49.7021,3,2
49.7062,2,1
49.7062,1,1
49.7062,1,2
49.7103,2,1
49.7103,0,0
49.7143,0,0
49.7144,2,3
49.7185,2,2
49.7185,1,2
49.7185,2,2
49.7226,2,2
49.7226,2,2
49.7267,2,2
49.7267,2,2
49.7308,1,1
49.7308,1,0
49.7309,0,0
49.7349,0,0
49.7349,1,2
49.7389,2,2
49.7389,2,2
49.7431,3,3
49.7431,2,2
49.7431,2,2
49.7472,2,2
49.7472,1,0
49.7513,0,0
49.7513,0,1
49.7553,0,0
49.7553,1,1
49.7553,1,2
49.7595,2,2
49.7595,2,2
49.7636,2,3
49.7636,3,2
49.7636,2,2
49.7676,1,1
49.7676,1,2
49.7717,3,1
49.7717,0,0
49.7759,0,0
49.7759,0,0
49.7759,1,1
49.7799,2,3
49.7799,4,4
49.784,5,3
49.7841,2,1
49.7881,2,1
49.7881,1,0
49.7881,0,0
49.7922,0,1
49.7922,1,1
49.7963,1,1
49.7963,1,1
49.8004,1,2
49.8004,1,1
49.8005,2,3
49.8044,3,3
49.8044,2,2
49.8086,1,1
49.8086,1,1
49.8127,0,0
49.8127,0,0
49.8127,0,1
49.8167,1,2
49.8167,2,3
49.8208,4,3
49.8209,4,2
49.825,2,2
49.825,2,2
49.825,1,1
49.829,1,1
49.829,1,1
49.8331,1,0
49.8331,0,0
49.8373,0,0
49.8373,0,1
49.8373,2,2
49.8413,2,2
49.8413,3,3
49.8466,4,4
49.8466,2,2
49.8466,2,2
49.8495,1,1
49.8495,0,0
49.8536,0,0
49.8536,1,1
49.8578,1,1
49.8579,1,2
49.8579,2,2
49.8618,3,3
49.8618,3,2
49.8659,2,2
49.8659,1,1
49.8701,1,0
49.8701,0,0
49.8701,0,0
49.8741,1,1
49.8741,1,1
49.8782,1,1
49.8782,2,2
49.8824,2,2
49.8824,3,3
49.8824,2,2
49.8864,2,2
49.8864,1,1
49.8905,1,1
49.8905,1,0
49.8946,0,1
49.8946,1,1
49.8946,0,0
49.8986,1,2
49.8986,2,3
49.9027,4,3
49.9027,2,1
49.9069,1,1
49.9069,1,1
49.9069,1,1
49.9109,1,0
49.9109,0,0
49.915,0,1
49.9151,2,2
49.9191,1,1
49.9191,1,1
49.9191,1,2
49.9233,2,3
49.9233,3,2
49.9273,2,1
49.9274,1,1
49.9274,0,0
49.9314,0,1
49.9314,0,1
49.9355,1,1
49.9355,0,1
49.9397,2,2
49.9397,3,2
49.9397,2,2
49.9437,2,2
49.9437,2,3
49.9478,2,1
49.9478,1,0
49.9519,0,0
49.9519,0,0
49.9519,0,2
49.956,2,2
49.9561,2,2
49.9601,2,2
49.9601,2,2
49.9643,3,2
49.9643,2,2
49.9643,2,2
49.9683,1,1
49.9683,0,0
49.9724,0,0
49.9724,1,1
49.9765,1,1
49.9765,1,1
49.9765,1,2
49.9805,2,2
49.9806,1,2
49.9846,3,4
49.9847,2,2
49.9888,2,2
49.9888,1,1
49.9888,0,0
49.9929,0,0
49.9929,1,0
49.997,0,0
49.997,1,2
50.001,3,3
50.001,3,4
50.0011,3,2
50.0052,2,2
50.0052,1,1
50.0094,1,1
50.0094,1,0
50.0134,0,0
50.0134,1,1
50.0134,1,1
50.0174,1,1
50.0174,1,2
50.0216,3,3
50.0216,2,3
50.0216,2,2
50.0256,2,2
50.0256,2,2
50.0297,1,0
50.0297,0,0
50.0338,0,1
50.0339,1,1
50.0339,1,1
50.0379,0,1
50.0379,2,2
50.042,3,3
50.042,3,2
50.0461,2,2
50.0461,2,2
50.0462,1,1
50.0502,1,1
50.0502,0,0
50.0544,0,1
50.0544,1,1
50.0585,1,1
50.0585,1,1
50.0585,2,2
50.0626,2,2
50.0626,3,3
50.0666,3,3
50.0666,2,1
50.0707,1,1
50.0707,0,0
50.0708,0,0
50.0748,0,0
50.0749,0,1
50.0789,2,2
50.0789,3,3
50.0831,3,4
50.0831,4,2
50.0831,1,1
50.0871,1,1
50.0871,2,2
