Program Time [s],data 0,data 1
170.488,2,2
170.492,2,2
170.492,2,2
170.496,2,2
170.496,1,1
170.496,1,0
170.5,0,1
170.5,1,0
170.504,1,0
170.504,0,0
170.508,2,2
170.509,3,3
170.509,3,3
170.513,1,0
170.513,1,1
170.517,1,1
170.517,2,2
170.517,2,1
170.521,0,0
170.521,0,0
170.525,1,2
170.525,2,2
170.529,2,2
170.529,2,2
170.529,2,2
170.533,2,1
170.533,1,1
170.537,1,1
170.537,1,1
170.541,0,1
170.541,2,2
170.541,1,2
170.545,3,3
170.545,3,2
170.549,2,1
170.549,1,1
170.554,0,0
170.554,0,1
170.554,1,1
170.558,0,1
170.558,1,2
170.562,2,2
170.562,2,3
170.566,3,2
170.566,1,1
170.566,1,1
170.57,1,0
170.57,0,1
170.574,3,2
170.574,1,0
170.578,0,0
170.578,0,0
170.578,1,2
170.582,3,3
170.582,3,3
170.586,3,2
170.586,1,1
170.59,0,0
170.59,1,1
170.59,1,1
170.594,2,2
170.594,3,2
170.599,1,0
170.599,0,0
170.599,0,1
170.603,2,3
170.603,4,4
170.607,4,2
170.607,0,-1
170.611,-2,0
170.611,0,2
170.611,3,3
170.615,3,2
170.615,1,1
170.619,2,1
170.619,0,0
170.623,0,2
170.623,4,5
170.623,4,2
170.627,0,-1
170.627,0,0
170.631,0,2
170.631,3,3
170.635,3,2
170.635,2,3
170.635,2,1
170.64,0,0
170.64,0,1
170.644,2,2
170.644,1,2
170.648,3,3
170.648,2,1
170.648,1,1
170.652,0,0
170.652,1,1
170.656,1,1
170.656,1,2
170.66,3,3
170.66,2,1
170.66,1,2
170.664,2,2
170.664,2,1
170.668,1,2
170.668,2,2
170.672,2,0
170.672,0,0
170.672,1,1
170.676,1,1
170.676,1,2
170.681,2,3
170.681,2,2
170.685,2,2
170.685,2,2
170.685,2,2
170.689,2,2
170.689,1,1
170.693,0,0
170.693,0,1
170.693,2,3
170.697,2,1
170.697,1,1
170.701,1,1
170.701,1,1
170.705,1,1
170.705,0,1
170.705,0,1
170.709,3,4
170.709,2,1
170.713,0,1
170.713,3,3
170.717,2,1
170.717,0,0
170.717,0,2
170.722,3,2
170.722,1,0
170.726,0,0
170.726,2,3
170.73,3,3
170.73,2,1
170.73,0,0
170.734,0,1
170.734,2,2
170.738,1,1
170.738,0,0
170.742,1,2
170.742,2,2
170.742,3,3
170.746,3,3
170.746,2,2
170.75,2,2
170.75,1,1
170.754,2,2
170.754,2,0
170.754,-1,-1
170.758,-2,0
170.758,2,4
170.762,5,5
170.762,2,1
170.766,0,1
170.767,1,1
170.767,1,2
170.771,2,4
170.771,4,3
170.775,1,0
170.775,-1,0
170.779,0,1
170.779,2,2
170.779,1,1
170.783,1,2
170.783,2,3
170.787,4,2
170.787,1,1
170.787,0,1
170.791,2,2
170.791,1,1
170.795,0,0
170.795,0,1
170.799,1,1
170.799,1,1
170.799,2,2
170.803,2,2
170.803,1,2
170.807,2,3
170.807,2,1
170.812,0,1
170.812,2,2
170.812,2,1
170.816,1,1
170.816,1,2
170.82,2,1
170.82,1,0
170.824,0,0
170.824,0,1
170.824,1,2
170.828,4,4
170.828,2,2
170.832,1,1
170.832,1,0
170.836,0,1
170.836,1,1
170.836,2,2
170.84,2,1
170.84,1,2
170.844,2,2
170.844,2,3
170.848,2,2
170.848,2,2
170.848,1,0
170.853,-1,0
170.853,2,4
170.857,3,1
170.857,-1,-1
170.861,1,3
170.861,3,3
170.861,2,2
170.865,2,2
170.865,2,2
170.869,1,1
170.869,1,2
170.873,1,1
170.873,1,2
170.873,2,1
170.877,1,1
170.877,1,2
170.881,3,3
170.881,2,0
170.885,0,1
170.885,3,3
170.885,2,1
170.889,1,1
170.889,2,2
170.894,3,1
170.894,1,0
170.894,0,0
170.898,0,2
170.898,5,6
170.902,5,2
170.902,0,0
170.906,1,3
170.906,4,2
170.906,0,0
170.91,0,-3
170.91,-3,-2
170.914,1,5
170.914,6,5
170.918,4,2
170.918,1,0
170.918,0,0
170.922,2,3
170.922,2,3
170.926,4,3
170.926,2,2
170.93,2,1
170.93,1,1
170.93,1,1
170.934,0,0
170.934,0,0
170.939,0,1
170.939,2,2
170.943,2,1
170.943,1,1
170.943,2,4
170.947,4,4
170.947,2,0
170.951,0,0
170.951,0,0
170.955,0,1
170.955,1,1
170.955,2,2
170.959,2,2
170.959,2,2
170.963,2,3
170.963,2,2
170.967,2,1
170.967,1,1
170.967,1,1
170.971,1,1
170.971,1,0
170.975,1,0
170.975,0,0
170.975,1,2
170.979,2,3
170.98,3,3
170.984,2,2
170.984,2,1
170.988,1,1
170.988,1,0
170.988,0,0
170.992,2,4
170.992,3,2
170.996,0,0
170.996,0,1
171,1,1
171,2,2
171,1,1
171.004,2,2
171.004,2,2
171.008,2,2
171.008,3,2
171.012,1,0
171.012,1,1
171.012,2,2
171.016,1,0
171.016,0,0
171.02,1,1
171.02,1,1
171.025,2,2
171.025,2,2
171.025,2,2
171.029,2,2
171.029,2,2
171.033,2,1
171.033,1,0
171.037,1,1
171.037,2,2
171.037,2,1
171.041,1,1
171.041,2,2
171.045,2,2
171.045,2,2
171.049,2,1
171.049,2,2
171.049,2,2
171.053,2,1
171.053,0,0
171.057,1,1
171.057,1,1
171.061,1,1
171.061,1,1
171.061,1,2
171.065,2,2
171.065,2,2
171.07,2,2
171.07,2,1
171.07,2,2
171.074,2,2
171.074,2,1
171.078,0,0
171.078,0,0
171.082,1,2
171.082,2,2
171.082,2,2
171.086,2,2
171.086,2,2
171.09,1,1
171.09,2,4
171.094,4,2
171.094,0,0
171.094,0,0
171.098,0,2
171.098,2,1
171.102,1,0
171.102,0,1
171.106,1,2
171.106,2,2
171.106,2,2
171.111,1,1
171.111,2,2
171.115,2,2
171.115,2,2
171.119,2,1
171.119,1,1
171.119,1,1
171.123,1,1
171.123,1,1
171.127,1,1
171.127,2,2
171.131,2,2
171.131,2,2
171.131,3,2
171.135,1,0
171.135,0,1
171.139,1,1
171.139,1,2
171.143,2,2
171.143,2,1
171.143,1,2
171.147,2,2
171.147,2,2
171.152,2,1
171.152,1,1
171.152,0,1
171.156,1,0
171.156,0,1
171.16,2,2
171.16,2,2
171.164,1,1
171.164,1,2
171.164,3,3
171.168,2,1
171.168,0,0
171.172,1,1
171.172,2,2
171.176,2,2
171.176,2,1
171.176,1,2
171.18,2,2
171.18,1,1
171.184,0,0
171.184,1,1
171.188,2,3
171.188,4,3
171.188,1,1
171.192,0,0
171.192,1,1
171.197,1,2
171.197,2,1
171.201,0,0
171.201,1,3
171.201,4,3
171.205,2,0
171.205,0,0
171.209,2,4
171.209,3,2
171.213,0,0
171.213,0,1
171.213,2,3
171.217,2,1
171.217,0,0
171.221,0,0
171.221,0,2
171.225,3,3
171.225,3,2
171.225,2,2
171.229,1,1
171.229,2,2
171.233,2,2
171.233,2,1
171.233,1,0
171.238,0,0
171.238,1,1
171.242,2,2
171.242,3,3
171.246,2,2
171.246,1,0
171.246,0,0
171.25,1,2
171.25,3,2
171.254,2,2
171.254,2,2
171.258,1,0
171.258,-1,0
171.258,0,1
171.262,2,3
171.262,4,5
171.266,3,3
171.266,3,2
171.27,0,0
171.27,-1,0
171.27,1,4
171.274,4,2
171.274,0,0
171.278,1,2
171.279,1,0
171.283,-1,-1
171.283,-1,0
171.283,2,5
171.287,6,6
171.287,4,4
171.291,4,2
171.291,0,0
171.295,0,1
171.295,2,2
171.295,2,0
171.299,0,0
171.299,-1,0
171.303,2,2
171.303,1,0
171.307,1,1
171.307,2,2
171.307,2,2
171.311,2,2
171.311,3,3
171.315,3,3
171.315,2,1
171.319,1,1
171.319,1,2
171.319,2,2
171.324,1,1
171.324,2,1
171.328,1,2
171.328,3,2
171.328,2,1
171.332,1,1
171.332,1,1
171.336,0,1
171.336,1,1
171.34,1,1
171.34,1,1
171.34,2,2
171.344,1,2
171.344,2,2
171.348,2,2
171.348,2,2
171.352,2,2
171.352,3,3
171.352,2,1
171.356,0,0
171.356,0,0
171.36,0,0
171.36,1,2
171.365,2,3
171.365,5,3
171.365,2,1
171.369,0,0
171.369,0,1
171.373,1,1
171.373,1,1
171.377,1,2
171.377,3,3
171.377,2,2
171.381,1,1
171.381,1,1
171.385,2,1
171.385,0,0
171.389,1,1
171.389,2,3
171.389,2,2
171.393,2,1
171.393,1,0
171.397,0,0
171.397,0,0
171.401,0,1
171.401,3,4
171.401,3,2
171.405,2,2
171.405,2,3
171.41,2,2
171.41,2,1
171.414,1,1
171.414,1,1
171.414,0,1
171.418,1,0
171.418,1,1
171.422,1,1
171.422,1,2
171.422,3,3
171.426,2,1
171.426,1,1
171.43,2,2
171.43,2,2
171.434,2,2
171.434,2,2
171.434,1,1
171.438,1,1
171.438,2,2
171.442,1,1
171.442,1,2
171.446,2,2
171.446,2,2
171.446,2,2
171.451,2,1
171.451,1,1
171.455,2,2
171.455,2,2
171.459,2,1
171.459,1,0
171.459,1,1
171.463,1,2
171.463,1,1
171.467,2,2
171.467,2,3
171.471,2,1
171.471,1,1
171.471,1,0
171.475,1,1
171.475,1,1
171.479,2,2
171.479,2,2
171.483,2,2
171.483,2,1
171.483,1,1
171.487,1,2
171.487,2,2
171.492,3,2
171.492,1,1
171.496,1,1
171.496,1,0
171.496,1,1
171.5,1,1
171.5,2,2
171.504,2,2
171.504,2,1
171.508,2,2
171.508,2,2
171.508,1,1
171.512,1,1
171.512,1,2
171.516,3,3
171.516,1,0
171.516,2,1
171.52,1,1
171.52,1,1
171.524,2,2
171.524,2,2
171.528,2,2
171.528,2,2
171.528,1,1
171.532,0,1
171.532,2,3
171.537,3,1
171.537,0,0
171.541,0,1
171.541,1,1
171.541,2,2
171.545,2,2
171.545,2,1
171.549,1,1
171.549,1,2
171.553,2,1
171.553,0,1
171.553,3,3
171.557,3,1
171.557,0,1
171.561,2,2
171.561,2,1
171.565,1,1
171.565,0,1
171.565,3,3
171.569,2,1
171.569,0,0
171.573,0,1
171.573,1,1
171.577,1,1
171.577,1,1
171.577,0,1
171.582,1,1
171.582,2,2
171.586,2,2
171.586,2,2
171.59,2,2
171.59,2,2
171.59,1,1
171.594,0,0
171.594,0,0
171.598,0,1
171.598,4,4
171.602,4,3
171.602,1,1
171.602,1,0
171.606,1,1
171.606,1,1
171.61,1,0
171.61,0,1
171.61,3,5
171.614,7,5
171.614,3,0
171.618,-2,-3
171.618,-2,0
171.623,3,4
171.623,3,2
171.623,2,2
171.627,1,1
171.627,0,0
171.631,0,3
171.631,6,8
171.635,7,2
171.635,-3,-4
171.635,-2,0
171.639,2,1
171.639,0,0
171.643,2,4
171.643,3,2
171.647,1,1
171.647,2,3
171.647,5,4
171.651,3,1
171.651,0,0
171.655,0,0
171.655,1,2
171.659,2,0
171.659,0,-1
171.659,0,1
171.663,2,3
171.663,3,3
171.668,3,3
171.668,2,2
171.672,2,2
171.672,1,1
171.672,1,2
171.676,2,2
171.676,2,2
171.68,2,1
171.68,1,0
171.684,0,0
171.684,1,0
171.684,0,0
171.688,1,1
171.688,1,2
171.692,3,3
171.692,3,2
171.696,2,2
171.696,2,2
171.696,1,1
171.7,0,0
171.7,0,0
171.704,0,2
171.704,2,2
171.704,2,3
171.709,3,3
171.709,2,3
171.713,2,2
171.713,2,2
171.717,2,2
171.717,1,0
171.717,0,0
171.721,0,0
171.721,1,1
171.725,2,3
171.725,4,3
171.729,2,1
171.729,1,1
171.729,1,1
171.733,1,1
171.733,1,0
171.737,0,0
171.737,0,1
171.741,2,2
171.741,1,2
171.741,2,3
171.747,3,2
171.747,2,2
171.75,2,2
171.75,1,1
171.754,1,0
171.754,0,0
171.754,1,1
171.758,1,1
171.758,1,2
171.762,2,2
171.762,2,2
171.766,2,2
171.766,3,2
171.766,2,1
171.77,0,0
171.77,1,1
171.774,2,2
171.774,2,2
171.778,1,1
171.778,1,1
171.778,1,1
171.782,1,1
171.782,2,2
171.786,2,2
171.786,2,2
171.79,1,2
171.79,2,3
171.79,2,2
171.795,1,0
171.795,1,0
171.799,0,1
171.799,1,2
171.799,2,2
171.803,1,2
171.803,2,2
171.807,2,2
171.807,2,1
171.811,1,1
171.811,0,1
171.811,2,2
171.815,2,1
171.815,1,1
171.819,1,1
171.819,1,1
171.823,2,3
171.823,2,2
171.823,1,2
171.827,2,3
171.827,2,1
171.831,1,0
171.831,0,1
171.836,1,2
171.836,2,2
171.836,1,1
171.84,0,0
171.84,0,1
171.844,2,3
171.844,3,3
171.848,3,3
171.848,1,1
171.848,0,1
171.852,1,1
171.852,1,1
171.856,1,2
171.856,2,3
171.86,2,2
171.86,1,1
171.86,1,2
171.864,2,2
171.864,2,1
171.868,1,1
171.868,1,1
171.872,1,1
171.872,0,0
171.872,1,2
171.876,2,2
171.876,2,2
171.881,2,2
171.881,1,1
171.881,1,2
171.885,2,2
171.885,2,2
171.889,2,2
171.889,2,1
171.893,1,1
171.893,1,1
171.893,1,1
171.897,1,2
171.897,2,2
171.901,2,2
171.901,2,2
171.905,2,2
171.905,1,1
171.905,1,1
171.909,1,1
171.909,2,2
171.913,2,1
171.913,1,1
171.918,0,0
171.918,0,1
171.918,1,1
171.922,1,1
171.922,2,2
171.926,3,3
171.926,2,1
171.93,1,2
171.93,2,1
171.93,1,0
171.934,0,1
171.934,1,1
171.938,2,2
171.938,1,1
171.942,1,2
171.942,2,2
171.942,2,3
171.946,2,2
171.946,1,1
171.95,0,0
171.95,1,1
171.954,1,1
171.954,1,1
171.954,0,1
171.958,1,1
171.958,1,1
171.963,1,1
171.963,2,2
171.967,2,3
171.967,3,1
171.967,1,1
171.971,1,1
171.971,0,1
171.975,1,1
171.975,1,1
171.975,1,1
171.979,1,1
171.979,2,2
171.983,3,3
171.983,2,1
171.987,1,0
171.987,0,1
171.987,1,2
171.991,2,2
171.991,2,1
171.995,1,1
171.995,1,2
171.999,2,2
171.999,2,2
171.999,1,1
172.004,1,2
172.004,2,2
172.008,2,2
172.008,2,1
172.012,2,2
172.012,2,2
172.012,1,1
172.016,1,1
172.016,1,1
172.02,1,1
172.02,2,2
172.024,2,2
172.024,2,1
172.024,1,1
172.028,1,2
172.028,2,2
172.032,2,2
172.032,1,2
172.036,2,2
172.036,2,1
172.036,1,1
172.04,1,1
172.04,1,1
172.044,0,1
172.044,1,1
172.049,1,1
172.049,0,1
172.049,1,1
172.053,2,2
172.053,2,2
172.057,2,2
172.057,2,2
172.061,2,1
172.061,1,1
172.061,2,2
172.065,2,2
172.065,2,2
172.069,1,1
172.069,1,1
172.073,1,1
172.073,1,1
172.073,1,1
172.077,1,1
172.077,0,1
172.081,1,1
172.081,1,2
172.081,2,2
172.085,2,2
172.085,2,2
172.089,1,1
172.09,2,2
172.094,2,2
172.094,2,2
172.094,2,1
172.098,1,1
172.098,1,2
172.102,2,2
172.102,2,2
172.106,2,2
172.106,2,1
172.106,1,1
172.11,1,1
172.11,1,1
172.114,1,1
172.114,1,1
172.118,0,1
172.118,1,1
172.118,2,2
172.122,1,1
172.122,1,1
172.126,2,2
172.126,2,2
172.13,2,2
172.13,2,2
172.13,2,2
172.135,1,1
172.135,1,0
172.139,1,1
172.139,1,1
172.143,2,2
172.143,2,2
172.143,2,2
172.147,2,2
172.147,1,1
172.151,1,1
172.151,1,1
172.155,1,1
172.155,0,1
172.155,1,0
172.159,0,0
172.159,2,2
172.163,3,2
172.163,2,2
172.167,2,2
172.167,2,2
172.167,2,2
172.171,2,1
172.171,1,1
172.176,0,1
172.176,1,1
172.176,1,1
172.18,1,1
172.18,1,1
172.184,1,1
172.184,2,2
172.188,3,3
172.188,2,2
172.188,2,1
172.192,1,0
172.192,0,1
172.196,1,1
172.196,1,0
172.2,1,1
172.2,1,2
172.2,3,3
172.204,3,2
172.204,1,0
172.208,0,0
172.208,0,0
172.212,1,2
172.212,3,3
172.212,3,2
172.216,1,1
172.216,1,1
172.22,1,2
172.22,2,2
172.225,2,3
172.225,2,2
172.225,1,1
172.229,1,1
172.229,0,0
172.233,1,1
172.233,2,2
172.237,2,2
172.237,2,2
172.237,2,1
172.241,1,1
172.241,2,2
172.245,2,1
172.245,1,2
172.249,2,3
172.249,2,2
172.249,1,1
172.253,1,0
172.253,0,1
172.257,1,1
172.257,1,1
172.261,1,1
172.261,1,1
172.261,1,2
172.266,2,2
172.266,2,2
172.27,2,2
172.27,2,2
172.27,1,1
172.274,1,1
172.274,1,1
172.278,1,1
172.278,1,1
172.282,1,1
172.282,2,2
172.282,2,2
172.286,2,2
172.286,3,2
172.29,2,1
172.29,1,0
172.294,0,0
172.294,1,2
172.294,2,2
172.298,2,1
172.298,1,1
172.302,0,0
172.302,1,1
172.307,2,3
172.307,3,2
172.307,1,1
172.311,1,1
172.311,2,2
172.315,3,1
172.315,1,1
172.319,1,1
172.319,0,1
172.319,1,2
172.323,2,2
172.323,2,2
172.327,1,1
172.327,2,2
172.331,3,2
172.331,2,1
172.331,1,1
172.335,0,0
172.335,0,0
172.339,0,0
172.339,2,2
172.343,3,2
172.343,2,2
172.343,2,3
172.347,2,3
172.347,3,3
172.352,2,1
172.352,1,1
172.356,2,2
172.356,1,1
172.356,1,0
172.36,0,0
172.36,0,1
172.364,1,1
172.364,2,2
172.364,3,2
172.368,2,2
172.368,1,1
172.372,2,2
172.372,2,3
172.376,2,2
172.376,1,0
172.376,0,0
172.38,2,2
172.38,1,1
172.384,0,1
172.384,1,1
172.388,1,2
172.389,2,2
172.389,2,2
172.393,2,1
172.393,1,1
172.397,1,1
172.397,2,1
172.401,1,2
172.401,2,3
172.401,3,2
172.405,2,1
172.405,0,0
172.409,0,1
172.409,1,2
172.413,3,2
172.413,2,1
172.413,1,1
172.417,1,1
172.417,0,0
172.421,0,1
172.421,1,1
172.425,1,1
172.425,1,1
172.425,2,2
172.429,3,4
172.429,3,2
172.434,0,0
172.434,0,1
172.438,1,1
172.438,1,2
172.438,2,2
172.442,2,1
172.442,1,1
172.446,2,3
172.446,3,3
172.45,3,2
172.45,0,0
172.45,0,0
172.454,1,1
172.454,1,2
172.458,2,1
172.458,1,1
172.462,2,2
172.462,2,1
172.462,1,1
172.466,2,2
172.466,3,3
172.47,1,1
172.47,1,1
172.47,1,1
172.474,0,1
172.474,1,1
172.479,1,1
172.479,1,0
172.483,1,1
172.483,2,2
172.483,2,2
172.487,1,1
172.487,1,1
172.491,2,2
172.491,2,2
172.495,2,2
172.495,2,2
172.495,2,1
172.499,0,1
172.499,2,2
172.503,3,2
172.503,2,1
172.507,1,2
172.507,2,2
172.507,2,2
172.511,1,1
172.511,1,1
172.515,1,1
172.515,2,2
172.52,1,1
172.52,1,0
172.52,0,0
172.524,0,0
172.524,1,2
172.528,2,2
172.528,3,3
172.532,2,2
172.532,1,0
172.532,0,1
172.536,2,4
172.536,4,2
172.54,0,0
172.54,1,1
172.544,1,1
172.544,1,1
172.544,1,1
172.548,1,1
172.548,1,1
172.552,0,1
172.552,1,1
172.556,1,2
172.556,2,2
172.556,2,2
172.56,2,2
172.56,2,2
172.565,2,2
172.565,3,2
172.565,1,0
172.569,0,0
172.569,1,2
172.573,2,2
172.573,2,2
172.577,2,2
172.577,2,2
172.577,2,1
172.581,1,1
172.581,1,1
172.585,2,2
172.585,2,3
172.589,3,1
172.589,1,1
172.589,0,1
172.593,1,2
172.593,3,2
172.597,2,1
172.597,1,0
172.601,0,1
172.601,1,2
172.601,2,3
172.605,2,2
172.606,1,1
172.61,1,1
172.61,1,1
172.614,1,1
172.614,1,0
172.614,0,0
172.618,0,0
172.618,1,2
172.622,3,3
172.622,2,2
172.626,2,3
172.626,3,2
172.626,1,1
172.63,1,1
172.63,1,2
172.634,1,0
172.634,0,0
172.638,0,2
172.638,3,3
172.638,2,2
172.642,1,1
172.642,0,0
172.646,1,2
172.646,2,2
172.651,1,2
172.651,2,2
172.651,2,2
172.655,2,1
172.655,1,1
172.659,1,1
172.659,1,2
172.659,2,3
172.663,2,2
172.663,2,2
172.667,2,2
172.667,1,1
172.671,1,1
172.671,1,0
172.671,0,1
172.675,1,0
172.675,0,0
172.679,2,2
172.679,3,2
172.683,3,3
172.683,3,2
172.683,3,3
172.687,2,0
172.687,1,1
172.692,2,1
172.692,1,1
172.696,0,0
172.696,0,0
172.696,1,1
172.7,1,2
172.7,2,2
172.704,2,2
172.704,2,2
172.708,2,1
172.708,1,1
172.708,3,4
172.712,5,3
172.712,0,-1
172.716,0,-1
172.716,0,2
172.72,3,3
172.72,2,1
172.72,0,0
172.724,1,2
172.724,2,2
172.728,2,2
172.728,2,2
172.732,2,2
172.733,1,1
172.733,1,2
172.737,1,1
172.737,1,1
172.741,1,1
172.741,2,3
172.745,3,2
172.745,2,1
172.745,1,1
172.749,1,2
172.749,2,2
172.753,2,2
172.753,2,2
172.753,1,1
172.757,2,1
172.757,1,1
172.761,1,1
172.761,1,0
172.765,0,1
172.765,1,2
172.765,2,2
172.769,3,2
172.769,2,1
172.773,0,0
172.773,1,2
172.778,2,2
172.778,2,2
172.778,1,2
172.782,2,2
172.782,1,1
172.786,0,0
172.786,0,1
172.79,2,2
172.79,2,2
172.79,1,1
172.794,1,1
172.794,1,2
172.798,2,2
172.798,2,2
172.802,3,2
172.802,1,1
172.802,2,2
172.806,1,1
172.806,1,1
172.81,1,1
172.81,0,0
172.814,0,0
172.814,1,3
172.814,4,3
172.818,3,2
172.818,1,1
172.823,1,1
172.823,0,0
172.827,0,1
172.827,1,1
172.827,1,1
172.831,2,3
172.831,3,2
172.835,1,1
172.835,1,1
172.839,1,1
172.839,1,1
172.839,1,1
172.843,2,2
172.843,2,2
172.847,2,1
172.847,1,1
172.847,2,3
172.851,3,1
172.851,0,1
172.855,1,1
172.856,1,2
172.86,2,2
172.86,3,2
172.86,2,1
172.864,1,1
172.864,1,2
172.868,2,1
172.868,1,1
172.872,1,1
172.872,1,0
172.872,0,1
172.876,2,2
172.876,1,0
172.88,0,1
172.88,2,3
172.884,2,2
172.884,1,1
172.884,0,1
172.888,2,3
172.888,3,3
172.892,1,1
172.892,1,1
172.896,1,1
172.896,1,1
172.896,2,1
172.9,0,0
172.9,1,1
172.905,2,2
172.905,2,2
172.909,1,1
172.909,1,1
172.909,1,1
172.913,3,5
172.913,4,2
172.917,0,0
172.917,0,1
172.921,1,2
172.921,2,2
172.921,2,2
172.925,2,2
172.925,2,1
172.929,2,2
172.929,2,1
172.933,1,0
172.933,0,1
172.933,1,1
172.937,0,1
172.937,1,1
172.941,1,2
172.941,2,2
172.941,2,2
172.945,2,2
172.945,1,1
172.95,0,1
172.95,3,3
172.954,3,1
172.954,1,1
172.954,1,1
172.958,0,1
172.958,2,2
172.962,2,1
172.962,1,1
172.966,1,1
172.966,1,1
172.966,1,1
172.97,1,1
172.97,1,2
172.974,2,1
172.974,1,0
172.978,0,1
172.978,1,2
172.978,1,2
172.982,3,3
172.982,2,2
172.986,1,1
172.987,1,1
172.991,0,1
172.991,2,2
172.991,1,0
172.995,0,1
172.995,1,1
172.999,1,1
172.999,1,1
173.003,2,2
173.003,2,2
173.003,1,1
173.007,1,2
173.007,4,6
173.011,5,2
173.011,0,-1
173.015,0,0
173.015,1,1
173.015,0,0
173.019,1,1
173.019,1,1
173.023,1,2
173.023,2,3
173.027,2,2
173.027,2,2
173.027,2,2
173.031,1,1
173.031,1,0
173.036,1,1
173.036,1,1
173.04,1,1
173.04,1,1
173.04,1,2
173.044,2,2
173.044,2,3
173.048,2,2
173.048,1,1
173.048,0,1
173.052,1,2
173.052,2,3
173.056,2,2
173.056,1,0
173.06,0,0
173.06,0,0
173.06,1,2
173.064,3,2
173.064,2,2
173.068,2,2
173.068,3,3
173.072,4,2
173.073,0,0
173.073,0,0
173.077,0,0
173.077,1,1
173.081,2,3
173.081,3,3
173.085,2,1
173.085,1,0
173.085,1,1
173.089,1,1
173.089,1,1
173.093,2,2
173.093,2,2
173.097,2,0
173.097,0,0
173.097,2,5
173.101,6,3
173.101,2,0
173.105,0,0
173.105,0,2
173.109,1,1
173.109,1,1
173.109,2,2
173.113,1,1
173.113,1,0
173.118,0,1
173.118,1,1
173.122,1,1
173.122,2,3
173.122,3,2
173.126,2,1
173.126,1,1
173.13,2,1
173.13,1,1
173.134,1,1
173.134,1,1
173.134,1,1
173.138,1,0
173.138,1,0
173.142,1,1
173.142,1,2
173.142,3,3
173.146,3,2
173.146,1,1
173.15,1,1
173.15,1,1
173.154,1,0
173.154,1,1
173.154,1,1
173.158,1,1
173.158,1,2
173.163,3,3
173.163,2,2
173.167,2,1
173.167,2,2
173.167,1,1
173.171,1,1
173.171,1,0
173.175,0,1
173.175,1,2
173.179,2,3
173.179,1,1
173.179,0,0
173.183,0,1
173.183,2,2
173.187,3,3
173.187,3,1
173.191,0,0
173.191,0,1
173.191,2,3
173.195,3,2
173.195,1,0
173.199,0,0
173.199,0,0
173.204,2,2
173.204,2,2
173.204,2,2
173.208,2,2
173.208,2,2
173.212,2,2
173.212,2,2
173.216,1,1
173.216,1,1
173.216,1,1
173.22,1,1
173.22,0,0
173.224,1,2
173.224,1,1
173.228,1,2
173.228,3,3
173.228,2,1
173.232,0,1
173.232,2,2
173.236,2,2
173.236,1,2
173.236,1,1
173.24,0,1
173.24,1,2
173.244,2,3
173.245,2,2
173.249,1,1
173.249,1,1
173.249,1,1
173.253,1,0
173.253,0,1
173.257,1,1
173.257,1,1
173.261,2,1
173.261,1,2
173.261,2,2
173.265,2,1
173.265,0,1
173.269,3,6
173.269,5,2
173.273,0,0
173.273,0,0
173.273,1,1
173.277,2,2
173.277,1,1
173.281,2,2
173.281,2,2
173.285,3,2
173.285,2,2
173.285,2,2
173.29,1,0
173.29,0,1
173.294,1,1
173.294,1,1
173.298,1,1
173.298,1,1
173.298,1,0
173.302,0,0
173.302,1,1
173.306,1,2
173.306,2,3
173.31,3,3
173.31,3,2
173.31,1,0
173.314,0,0
173.314,0,1
173.318,1,2
173.318,3,2
173.318,2,2
173.322,1,1
173.322,2,2
173.326,3,2
173.326,1,1
173.331,1,1
173.331,1,1
173.331,0,0
173.335,2,2
173.335,2,1
173.339,1,1
173.339,1,2
173.343,2,2
173.343,2,1
173.343,1,2
173.347,2,2
173.347,3,2
173.351,2,1
173.351,1,1
173.355,1,1
173.355,1,1
173.355,1,1
173.359,0,0
173.359,1,1
173.363,1,2
173.363,4,5
173.367,4,2
173.367,0,-1
173.367,-1,-1
173.371,1,1
173.371,1,1
173.376,1,1
173.376,1,2
173.38,2,2
173.38,3,3
173.38,3,2
173.384,1,1
173.384,2,1
173.388,1,1
173.388,1,1
173.392,1,1
173.392,0,0
173.392,1,2
173.396,2,2
173.396,2,1
173.4,1,1
173.4,1,2
173.404,3,2
173.404,2,2
173.404,2,2
173.408,2,1
173.408,1,0
173.412,1,2
173.412,2,1
173.416,1,1
173.417,2,1
173.417,1,0
173.421,0,0
173.421,1,2
173.425,2,2
173.425,2,2
173.425,2,2
173.429,3,5
173.429,4,2
173.433,0,-1
173.433,0,0
173.437,3,4
173.437,2,1
173.437,0,0
173.441,1,1
173.441,0,0
173.445,1,1
173.445,0,0
173.449,0,0
173.449,1,2
173.449,3,3
173.453,3,3
173.453,2,2
173.457,2,2
173.457,1,0
173.462,1,2
173.462,3,4
173.462,2,2
173.466,1,1
173.466,0,1
173.47,1,1
173.47,2,2
173.474,1,1
173.474,1,1
173.474,1,1
173.478,1,0
173.478,0,2
173.482,2,2
173.482,1,1
173.486,1,1
173.486,1,1
173.486,1,1
173.49,1,2
173.49,2,3
173.494,4,2
173.494,2,1
173.498,0,0
173.498,1,0
173.498,1,1
173.503,2,2
173.503,3,1
173.507,1,1
173.507,2,1
173.511,1,0
173.511,0,1
173.511,1,2
173.515,4,4
173.515,4,3
173.519,2,1
173.519,0,0
173.519,0,0
173.523,0,2
173.523,4,4
173.527,3,2
173.527,0,0
173.531,0,0
173.531,1,2
173.531,2,2
173.535,2,1
173.535,1,0
173.539,0,0
173.539,1,1
173.543,1,1
173.544,2,3
173.544,3,2
173.548,2,2
173.548,2,1
173.552,1,1
173.552,0,0
173.556,0,1
173.556,2,2
173.556,2,1
173.56,1,1
173.56,1,2
173.564,2,2
173.564,2,2
173.568,1,2
173.568,2,2
173.568,3,1
173.572,1,1
173.572,1,1
173.576,1,1
173.576,0,1
173.58,1,1
173.58,1,1
173.58,2,3
173.584,4,3
173.584,2,1
173.589,0,0
173.589,0,1
173.593,2,2
173.593,2,2
173.593,1,1
173.597,0,0
173.597,1,2
173.601,2,2
173.601,3,3
173.605,2,2
173.605,1,0
173.605,0,0
173.609,2,6
173.609,6,4
173.613,0,-1
173.613,-1,0
173.613,1,1
173.617,0,0
173.617,0,1
173.621,1,1
173.621,1,1
173.625,2,1
173.625,1,2
173.625,2,3
173.629,4,5
173.629,4,3
173.634,1,0
173.634,1,1
173.638,1,0
173.638,0,0
173.638,1,1
173.642,2,3
173.642,2,1
173.646,1,1
173.646,2,2
173.65,3,2
173.65,2,2
173.65,1,0
173.654,0,1
173.654,2,2
173.658,2,2
173.658,2,2
173.662,1,1
173.662,1,0
173.662,0,0
173.666,0,1
173.666,2,2
173.67,2,2
173.67,2,1
173.675,1,1
173.675,1,2
173.675,2,3
173.679,3,2
173.679,1,1
173.683,0,0
173.683,0,0
173.687,4,7
173.687,7,3
173.687,0,-1
173.691,-1,0
173.691,0,1
173.695,2,3
173.695,3,1
173.699,0,0
173.699,0,0
173.699,1,1
173.703,1,1
173.703,2,2
173.707,1,1
173.707,2,2
173.707,3,4
173.711,2,1
173.711,0,0
173.715,1,2
173.716,2,1
173.72,1,1
173.72,1,1
173.72,1,2
173.724,2,2
173.724,3,2
173.728,1,1
173.728,1,1
173.732,1,2
173.732,2,2
173.732,2,3
173.736,2,1
173.736,1,0
173.74,0,1
173.74,1,1
173.744,2,2
173.744,3,2
173.744,1,1
173.748,3,2
173.748,2,1
173.752,0,0
173.752,0,1
173.756,1,1
173.756,1,2
173.756,3,2
173.76,2,1
173.761,2,2
173.765,2,1
173.765,1,1
173.769,3,5
173.769,5,3
173.769,1,0
173.773,0,0
173.773,0,0
173.777,0,2
173.777,2,2
173.781,1,1
173.781,1,1
173.781,1,2
173.785,2,3
173.785,3,2
173.789,2,1
173.789,1,1
173.789,2,2
173.793,1,0
173.793,0,1
173.797,0,0
173.797,1,2
173.802,2,2
173.802,2,2
173.802,2,2
173.806,2,2
173.806,2,2
173.81,2,1
173.81,1,1
173.814,1,2
173.814,1,1
173.814,1,1
173.818,0,0
173.818,1,1
173.822,1,1
173.822,1,2
173.826,3,2
173.826,1,0
173.826,1,1
173.83,1,1
173.83,1,1
173.834,0,1
173.834,1,1
173.838,1,1
173.838,2,2
173.838,2,2
173.842,2,2
173.843,2,1
173.847,1,1
173.847,1,1
173.851,2,2
173.851,3,3
173.851,2,2
173.855,2,2
173.855,1,1
173.859,0,0
173.859,0,0
173.863,0,0
173.863,0,2
173.863,3,4
173.867,5,3
173.867,1,1
173.871,1,2
173.871,2,2
173.875,2,1
173.875,1,1
173.875,0,0
173.879,0,-1
173.879,0,1
173.883,2,0
173.883,0,-1
173.883,0,3
173.887,5,6
173.887,4,0
173.892,-2,-2
173.892,1,6
173.896,11,13
173.896,8,0
173.9,-5,-8
173.9,-9,-10
173.9,-4,4
173.904,10,14
173.904,7,-3
173.908,-8,-4
173.908,1,9
173.912,12,9
173.912,7,7
173.912,13,23
173.916,20,8
173.916,-6,-20
173.92,-21,-13
173.92,-9,-6
173.924,-4,-7
173.924,-4,1
173.924,4,2
173.928,8,21
173.929,28,27
173.933,16,-3
173.933,-16,-18
173.937,-16,-14
173.937,-9,-1
173.941,8,18
173.941,19,14
173.941,9,0
173.945,-8,-14
173.945,-18,-17
173.949,-15,-13
173.949,-1,11
173.953,15,12
173.953,6,7
173.957,18,27
173.957,29,22
173.957,7,-10
173.961,-17,-11
173.961,-2,1
173.965,1,0
173.965,-2,0
173.969,3,4
173.969,2,2
173.969,0,-3
173.974,-6,-8
173.974,-4,2
173.978,8,9
173.978,4,-1
173.982,-1,0
173.982,2,2
173.982,3,4
173.986,4,3
173.986,2,3
173.99,3,2
173.99,4,5
173.994,7,7
173.994,7,5
173.994,1,-3
173.998,-6,-7
173.998,-5,-2
174.002,0,1
174.002,0,0
174.006,2,4
174.006,5,6
174.006,6,7
174.01,7,4
174.01,0,-3
174.014,-4,-1
174.015,2,3
174.019,2,0
174.019,-1,-1
174.019,0,0
174.023,0,1
174.023,2,4
174.027,3,0
174.027,0,2
174.031,5,7
174.031,8,6
174.031,3,1
174.035,0,-2
174.035,-3,-2
174.039,0,1
174.039,0,0
174.043,0,4
174.043,8,11
174.043,12,7
174.047,2,0
174.047,-3,-5
174.052,-4,-3
174.052,-1,0
174.055,1,4
174.055,4,4
174.055,2,0
174.06,-3,-3
174.06,-2,-1
174.064,0,2
174.064,4,7
174.068,9,6
174.068,3,2
174.068,2,3
174.072,2,1
174.072,1,0
174.076,0,0
174.076,0,0
174.08,2,4
174.08,4,2
174.08,1,0
174.084,0,1
174.084,1,1
174.088,2,3
174.088,3,4
174.092,2,1
174.092,0,0
174.092,0,0
174.096,0,3
174.096,4,1
174.1,0,1
174.1,2,2
174.101,2,2
174.105,1,2
174.105,3,3
174.109,3,3
174.109,2,2
174.113,1,0
174.113,0,0
174.113,-1,0
174.117,0,1
174.117,1,2
174.121,2,3
174.121,4,3
174.125,4,4
174.125,4,3
174.125,1,0
174.129,0,0
174.129,0,0
174.133,-1,0
174.133,0,2
174.137,2,3
174.137,2,2
174.137,3,3
174.141,3,2
174.141,2,1
174.146,1,1
174.146,2,1
174.15,0,0
174.15,0,0
174.15,0,0
174.154,1,2
174.154,2,2
174.158,3,3
174.158,4,4
174.162,3,3
174.162,2,1
174.162,0,-1
174.166,0,1
174.166,1,1
174.17,1,0
174.17,1,3
174.174,4,3
174.174,1,1
174.174,1,2
174.178,3,2
174.178,1,0
174.182,0,0
174.182,0,0
174.186,1,2
174.187,3,2
174.187,2,2
174.191,2,2
174.191,3,2
174.195,1,1
174.195,1,2
174.195,1,1
174.199,1,1
174.199,0,0
174.203,0,1
174.203,2,1
174.207,1,0
174.207,0,1
174.207,2,3
174.211,3,3
174.211,3,2
174.215,1,1
174.215,1,1
174.219,1,1
174.219,0,1
174.219,2,4
174.223,4,2
174.223,1,1
174.227,1,1
174.227,1,1
174.232,1,1
174.232,1,1
174.232,1,0
174.236,0,0
174.236,0,0
174.24,2,2
174.24,3,2
174.244,2,2
174.244,2,3
174.244,3,2
174.248,2,1
174.248,0,0
174.252,0,0
174.252,0,2
174.256,4,5
174.256,2,1
174.256,0,0
174.26,0,1
174.26,2,3
174.264,3,2
174.264,0,0
174.268,0,1
174.268,2,2
174.268,2,2
174.273,2,1
174.273,1,0
174.277,0,1
174.277,2,2
174.277,1,1
174.281,2,2
174.281,2,2
174.285,2,2
174.285,3,1
174.289,1,1
174.289,1,1
174.289,1,1
174.293,2,2
174.293,1,1
174.297,0,0
174.297,0,1
174.301,2,2
174.301,2,2
174.301,1,1
174.305,2,2
174.305,2,1
174.309,1,1
174.309,2,2
174.313,2,2
174.313,2,2
174.313,2,1
174.318,1,2
174.318,2,2
174.322,2,2
174.322,2,2
174.326,2,1
174.326,0,0
174.326,1,1
174.33,1,1
174.33,1,2
174.334,2,1
174.334,1,1
174.338,2,4
174.338,4,3
174.338,2,1
174.342,0,0
174.342,0,1
174.346,1,1
174.346,1,1
174.35,0,1
174.35,2,2
174.35,2,2
174.354,2,1
174.354,1,0
174.359,1,1
174.359,1,1
174.359,1,2
174.363,3,3
174.363,2,1
174.367,0,1
174.367,2,2
174.371,2,1
174.371,0,0
174.371,2,1
174.375,1,1
174.375,1,1
174.379,0,1
174.379,2,2
174.383,2,2
174.383,2,2
174.383,1,1
174.387,1,1
174.387,2,2
174.391,1,1
174.391,2,2
174.395,2,3
174.395,2,2
174.395,1,1
174.399,0,1
174.399,1,1
174.404,0,1
174.404,1,2
174.408,2,3
174.408,1,1
174.408,0,1
174.412,1,1
174.412,1,1
174.416,1,2
174.416,2,1
174.42,1,1
174.42,3,6
174.42,5,2
174.424,0,0
174.424,0,0
174.428,0,0
174.428,2,2
174.432,1,2
174.432,3,3
174.432,2,1
174.436,0,0
174.436,0,0
174.44,0,0
174.44,1,2
174.441,2,3
174.445,3,3
174.445,2,2
174.449,1,1
174.449,1,0
174.453,0,1
174.453,2,2
174.453,1,0
174.457,0,0
174.457,0,1
174.461,2,4
174.461,5,5
174.465,3,2
174.465,2,2
174.465,1,0
174.469,0,0
174.469,0,0
174.473,1,2
174.473,3,3
174.477,3,1
174.477,1,1
174.477,2,2
174.481,2,2
174.481,1,2
174.485,2,2
174.486,2,2
174.49,1,1
174.49,1,0
174.49,0,0
174.494,0,1
174.494,1,1
174.498,2,2
174.498,2,2
174.502,1,1
174.502,1,1
174.502,2,4
174.506,4,3
174.506,2,1
174.51,0,0
174.51,0,0
174.514,1,1
174.514,1,1
174.514,1,1
174.518,1,1
174.518,1,1
174.522,1,1
174.522,1,2
174.526,2,2
174.526,3,3
174.526,2,1
174.531,1,0
174.531,1,1
174.535,2,3
174.535,2,1
174.535,0,0
174.539,1,1
174.539,1,2
174.543,2,2
174.543,2,2
174.547,2,1
174.547,1,1
174.547,1,2
174.551,2,2
174.551,3,2
174.555,2,2
174.555,2,1
174.559,1,1
174.559,1,1
174.559,0,0
174.563,0,0
174.563,1,1
174.567,2,2
174.567,1,2
174.572,2,2
174.572,2,2
174.572,2,2
174.576,2,1
174.576,0,0
174.58,0,1
174.58,3,7
174.584,7,3
174.584,0,0
174.584,0,0
174.588,0,0
174.588,0,1
174.592,1,1
174.592,1,1
174.596,1,1
174.596,1,1
174.596,1,0
174.6,1,1
174.6,2,3
174.604,4,3
174.604,2,1
174.608,1,1
174.608,1,0
174.609,0,0
174.613,1,2
174.613,2,2
174.617,1,1
174.617,1,1
174.621,1,1
174.621,1,1
174.621,2,2
174.625,3,3
174.625,2,2
174.629,1,1
174.629,1,1
174.629,1,1
174.633,1,1
174.633,0,0
174.637,1,1
174.637,1,1
174.641,1,1
174.641,2,2
174.641,2,2
174.645,2,2
174.645,2,2
174.649,2,2
174.649,1,1
174.653,0,0
174.653,0,0
174.653,1,3
174.658,3,3
174.658,2,2
174.662,1,1
174.662,1,2
174.666,2,2
174.666,2,1
174.666,1,1
174.67,1,0
174.67,0,1
174.674,1,2
174.674,2,2
174.678,2,2
174.678,2,2
174.678,2,1
174.682,1,1
174.682,1,1
174.686,1,1
174.686,1,1
174.69,1,1
174.69,2,2
174.69,1,1
174.694,1,1
174.694,0,0
174.699,1,1
174.699,2,2
174.703,2,2
174.703,2,2
174.703,2,2
174.707,2,2
174.707,1,1
174.711,1,1
174.711,0,1
174.711,2,2
174.715,2,2
174.715,2,2
174.719,1,2
174.719,1,1
174.723,1,1
174.723,2,2
174.723,2,0
174.727,0,0
174.727,0,1
174.731,2,2
174.731,3,3
174.735,2,2
174.735,2,1
174.735,1,0
174.739,0,3
174.739,3,3
174.743,2,1
174.743,0,0
174.748,0,0
174.748,1,2
174.748,2,2
174.752,1,1
174.752,1,1
174.756,2,3
174.756,3,2
174.76,1,0
174.76,1,1
174.76,2,2
174.764,2,2
174.764,2,2
174.768,2,2
174.768,2,1
174.772,1,1
174.772,1,1
174.772,1,1
174.776,0,1
174.776,1,2
174.78,2,1
174.78,1,1
174.784,1,2
174.784,2,2
174.785,4,3
174.789,2,1
174.789,1,0
174.793,0,0
174.793,1,1
174.797,1,1
174.797,1,1
174.797,1,1
174.801,2,3
174.801,3,2
174.805,2,2
174.805,1,1
174.809,1,1
174.809,0,1
174.809,2,2
174.813,2,2
174.813,1,1
174.817,1,1
174.817,1,1
174.817,1,1
174.821,2,2
174.821,1,0
174.825,1,1
174.825,2,3
174.83,4,3
174.83,2,1
174.83,1,0
174.834,0,0
174.834,1,1
174.838,2,2
174.838,3,3
174.842,2,1
174.842,1,1
174.842,1,1
174.846,1,1
174.846,1,1
174.85,1,1
174.85,1,1
174.854,1,0
174.854,1,1
174.854,1,1
174.858,2,2
174.858,1,1
174.862,1,2
174.862,2,3
174.866,2,2
174.866,2,2
174.866,2,2
174.871,2,1
174.871,1,0
174.875,0,0
174.875,1,1
174.879,1,2
174.879,1,1
174.879,1,2
174.883,2,3
174.883,3,2
174.887,2,1
174.887,1,0
174.891,0,1
174.891,1,1
174.891,2,2
174.895,1,1
174.895,1,2
174.899,2,2
174.899,2,2
174.903,2,2
174.903,2,2
174.903,1,1
174.907,0,0
174.907,0,0
174.911,2,5
174.911,4,2
174.911,0,0
174.916,0,0
174.916,1,1
174.92,2,2
174.92,2,2
174.924,2,2
174.924,2,2
174.924,2,1
174.928,2,2
174.928,2,1
174.932,0,0
174.932,0,1
174.936,1,1
174.936,2,2
174.936,2,2
174.94,2,2
174.94,2,2
174.944,2,1
174.944,1,0
174.948,0,1
174.948,1,1
174.948,1,2
174.952,2,3
174.952,3,3
174.957,1,1
174.957,1,1
174.961,1,1
174.961,1,1
174.961,1,1
174.965,1,1
174.965,1,1
174.969,0,0
174.969,1,2
174.973,2,2
174.973,2,2
174.973,2,2
174.977,1,2
174.977,2,1
174.981,1,0
174.981,0,1
174.985,1,2
174.985,3,2
174.985,2,1
174.989,1,1
174.989,1,2
174.993,1,0
174.993,0,1
174.997,2,3
174.997,3,5
174.997,4,2
175.002,0,0
175.002,0,1
175.006,1,1
175.006,1,1
175.006,1,1
175.01,2,1
175.01,1,1
175.014,0,0
175.014,1,1
175.018,1,1
175.018,1,2
175.018,3,3
175.022,2,2
175.022,1,1
175.026,2,2
175.026,1,1
175.03,0,0
175.03,1,1
175.03,1,2
175.034,2,2
175.034,2,2
175.038,2,2
175.038,2,2
175.043,1,1
175.043,1,1
175.043,1,1
175.047,1,1
175.047,1,1
175.051,1,1
175.051,0,1
175.055,1,1
175.055,1,1
175.055,1,1
175.059,2,2
175.059,2,2
175.063,2,2
175.063,2,2
175.067,2,2
175.067,2,1
175.067,0,0
175.071,0,1
175.071,2,2
175.075,2,2
175.075,3,2
175.079,1,0
175.079,0,0
175.079,2,4
175.083,4,3
175.084,1,0
175.088,0,0
175.088,1,1
175.092,1,2
175.092,2,2
175.092,2,2
175.096,2,1
175.096,1,1
175.1,2,2
175.1,2,2
175.1,2,2
175.104,2,1
175.104,1,1
175.108,1,3
175.108,4,3
175.112,1,0
175.112,0,0
175.112,1,1
175.116,2,2
175.116,2,1
175.12,1,2
175.12,2,2
175.124,1,2
175.124,2,2
175.124,2,2
175.129,2,1
175.129,1,1
175.133,1,1
175.133,1,1
175.137,1,1
175.137,2,2
175.137,1,1
175.141,2,2
175.141,2,3
175.145,2,2
175.145,2,1
175.149,0,0
175.149,0,1
175.149,1,1
175.153,2,2
175.153,2,2
175.157,2,2
175.157,2,2
175.161,1,1
175.161,1,1
175.161,2,2
175.165,2,2
175.165,1,1
175.169,1,1
175.169,0,0
175.174,2,3
175.174,4,4
175.174,2,1
175.178,0,0
175.178,0,0
175.182,1,2
175.182,3,4
175.182,3,2
175.186,1,1
175.186,0,0
175.19,0,1
175.19,2,3
175.194,3,1
175.194,1,0
175.194,1,1
175.198,1,1
175.198,1,1
175.202,1,1
175.202,2,2
175.206,2,2
175.206,2,2
175.206,2,2
175.21,2,2
175.21,2,2
175.215,1,1
175.215,0,0
175.219,1,1
175.219,1,1
175.219,1,1
175.223,1,1
175.223,1,1
175.227,1,1
175.227,1,0
175.231,1,1
175.231,1,2
175.231,2,2
175.235,2,2
175.235,2,1
175.239,1,1
175.239,1,2
175.243,2,2
175.243,2,2
175.243,1,1
175.247,1,1
175.247,1,1
175.251,1,1
175.251,2,3
175.255,2,1
175.255,0,0
175.255,0,2
175.26,4,4
175.26,2,1
175.264,1,0
175.264,0,1
175.268,1,1
175.268,1,1
175.268,1,1
175.272,0,1
175.272,2,2
175.276,2,1
175.276,1,1
175.276,1,1
175.28,1,0
175.28,1,2
175.284,2,3
175.284,2,1
175.288,1,1
175.288,1,1
175.288,1,0
175.292,1,1
175.292,3,3
175.296,2,1
175.296,0,0
175.301,1,1
175.301,2,2
175.301,2,2
175.305,2,3
175.305,2,1
175.309,1,1
175.309,0,1
175.313,1,1
175.313,1,1
175.313,2,2
175.317,2,2
175.317,2,1
175.321,1,1
175.321,1,2
175.325,2,3
175.325,3,2
175.325,1,0
175.329,0,0
175.329,2,2
175.333,1,1
175.333,1,1
175.337,1,1
175.337,1,1
175.337,1,1
175.342,1,1
175.342,1,1
175.346,1,1
175.346,1,1
175.35,1,0
175.35,1,2
175.35,1,1
175.354,0,1
175.354,2,5
175.358,4,3
175.358,1,1
175.362,0,0
175.362,0,1
175.362,1,1
175.366,1,1
175.366,0,1
175.37,1,2
175.37,2,2
175.374,2,1
175.374,1,2
175.374,2,2
175.378,1,1
175.378,2,2
175.383,2,2
175.383,2,2
175.383,2,2
175.387,2,1
175.387,1,1
175.391,1,0
175.391,0,1
175.395,1,1
175.395,0,0
175.395,1,2
175.399,4,4
175.399,2,1
175.403,0,0
175.403,0,1
175.407,2,3
175.407,3,2
175.407,1,1
175.411,2,2
175.411,2,2
175.415,2,1
175.415,1,1
175.42,2,2
175.42,2,2
175.42,2,2
175.423,2,3
175.423,2,1
175.428,1,1
175.428,1,1
175.432,1,0
175.432,0,1
175.432,1,1
175.436,1,1
175.436,1,2
175.44,3,6
175.44,5,2
175.444,0,0
175.444,0,1
175.444,1,1
175.448,1,1
175.448,0,0
175.452,2,2
175.452,2,1
175.456,1,1
175.456,1,1
175.456,1,1
175.46,1,1
175.46,2,2
175.464,2,2
175.464,2,2
175.468,2,2
175.468,2,2
175.468,2,1
175.473,1,1
175.473,0,1
175.477,1,2
175.477,3,1
175.477,1,0
175.481,1,1
175.481,1,2
175.485,2,3
175.485,3,3
175.489,2,1
175.489,0,0
175.489,0,0
175.493,1,1
175.493,2,2
175.497,2,1
175.497,1,1
175.501,1,1
175.501,2,1
175.501,2,2
175.505,2,2
175.505,2,3
175.509,2,1
175.509,0,0
175.514,1,2
175.514,2,2
175.514,1,1
175.518,2,3
175.518,3,2
175.522,1,1
175.522,0,0
175.526,0,0
175.526,1,3
175.526,4,3
175.53,2,0
175.53,0,0
175.534,1,2
175.534,2,2
175.538,2,2
175.538,1,1
175.538,1,2
175.542,2,3
175.542,2,1
175.546,0,1
175.546,1,1
175.55,2,1
175.55,1,1
175.55,1,1
175.554,2,2
175.554,2,2
175.559,2,2
175.559,1,2
175.559,2,2
175.563,2,1
175.563,1,1
175.567,1,1
175.567,0,1
175.571,2,2
175.571,1,1
175.571,1,1
175.575,1,1
175.575,1,0
175.579,1,1
175.579,1,2
175.583,2,2
175.583,2,1
175.583,2,2
175.587,2,2
175.587,2,2
175.591,2,1
175.591,1,1
175.595,1,0
175.595,0,1
175.596,1,1
175.6,2,2
175.6,2,2
175.604,1,2
175.604,2,2
175.608,2,2
175.608,2,2
175.608,1,1
175.612,1,1
175.612,1,1
175.616,2,2
175.616,1,1
175.62,1,1
175.62,2,2
175.62,2,2
175.624,1,1
175.624,1,1
175.628,1,0
175.628,1,2
175.632,3,5
175.632,5,4
175.632,0,0
175.636,-1,0
175.636,0,0
175.641,1,2
175.641,3,3
175.645,3,1
175.645,1,0
175.645,1,2
175.649,2,2
175.649,2,1
175.653,1,0
175.653,1,1
175.653,1,1
175.657,2,2
175.657,3,3
175.661,2,1
175.661,0,0
175.665,1,2
175.665,2,2
175.665,1,1
175.669,0,1
175.669,1,1
175.673,1,1
175.673,1,1
175.677,1,1
175.677,1,0
175.677,1,1
175.681,1,1
175.681,2,3
175.686,3,2
175.686,1,1
175.69,1,1
175.69,1,1
175.69,1,1
175.694,0,1
175.694,1,1
175.698,1,2
175.698,2,3
175.702,3,2
175.702,1,1
175.702,1,1
175.706,1,1
175.706,1,1
175.71,1,2
175.71,1,1
175.714,0,0
175.714,1,1
175.714,1,0
175.718,0,1
175.718,3,4
175.722,5,3
175.722,2,1
175.727,1,1
175.727,1,0
175.727,0,0
175.731,1,1
175.731,1,1
175.735,1,1
175.735,1,1
175.739,1,1
175.739,1,2
175.739,2,3
175.743,4,2
175.743,1,1
175.747,2,2
175.747,1,0
175.751,0,0
175.751,1,1
175.751,2,3
175.755,2,1
175.755,0,1
175.759,0,0
175.759,1,2
175.759,3,2
175.763,2,2
175.763,2,2
175.767,2,2
175.767,1,0
175.772,0,1
175.772,2,2
175.772,2,1
175.776,1,2
175.776,2,2
175.78,2,2
175.78,2,2
175.784,2,1
175.784,1,1
175.784,1,1
175.788,0,1
175.788,1,1
175.792,1,1
175.792,1,2
175.796,2,2
175.796,2,1
175.796,1,2
175.8,2,3
175.8,2,2
175.804,1,1
175.804,1,1
175.808,1,1
175.808,1,1
175.808,1,0
175.813,0,0
175.813,0,1
175.817,3,6
175.817,5,2
175.821,0,0
175.821,0,0
175.821,1,1
175.825,2,2
175.825,2,2
175.829,2,2
175.829,1,1
175.833,1,2
175.833,2,2
175.833,2,1
175.837,1,1
175.837,1,2
175.841,2,2
175.841,2,2
175.845,3,2
175.845,1,1
175.845,2,2
175.849,1,0
175.849,0,0
175.853,1,1
175.853,1,1
175.854,1,1
175.858,2,2
175.858,2,2
175.862,2,2
175.862,2,1
175.866,1,1
175.866,2,2
175.866,3,2
175.87,1,1
175.87,0,1
175.874,1,1
175.874,1,1
175.878,2,2
175.878,2,2
175.878,2,2
175.882,2,2
175.882,1,2
175.886,2,2
175.886,1,1
175.89,1,1
175.89,2,2
175.89,1,1
175.894,0,0
175.894,1,1
175.899,1,1
175.899,2,2
175.903,2,1
175.903,1,1
175.903,1,2
175.907,2,3
175.907,2,1
175.911,1,2
175.911,2,2
175.915,2,2
175.915,1,1
175.915,1,1
175.919,1,1
175.919,2,2
175.923,3,3
175.923,2,2
175.927,1,1
175.927,1,0
175.927,0,0
175.931,2,2
175.931,1,1
175.935,1,0
175.935,0,0
175.939,3,5
175.939,7,3
175.939,1,0
175.944,0,1
175.944,1,1
175.948,1,0
175.948,0,1
175.948,2,2
175.952,1,1
175.952,1,2
175.956,2,2
175.956,1,1
175.96,1,1
175.96,1,2
175.96,2,2
175.964,2,3
175.964,2,2
175.968,2,1
175.968,1,0
175.972,0,0
175.972,0,1
175.972,2,2
175.976,2,2
175.976,1,1
175.98,1,1
175.98,2,2
175.985,3,2
175.985,2,2
175.985,2,1
175.989,1,1
175.989,1,1
175.993,0,1
175.993,0,0
175.997,0,1
175.997,2,2
175.997,1,2
176.001,2,3
176.001,3,2
176.005,1,1
176.005,0,0
176.009,1,1
176.009,2,2
176.009,2,2
176.013,1,1
176.013,2,2
176.017,2,2
176.017,2,2
176.021,1,2
176.021,2,2
176.021,1,2
176.025,2,1
176.025,1,0
176.03,0,1
176.03,1,2
176.034,2,1
176.034,1,1
176.034,1,1
176.038,1,1
176.038,0,1
176.042,1,1
176.042,2,2
176.046,2,2
176.046,3,2
176.046,0,0
176.05,0,0
176.05,1,3
176.054,5,4
176.054,3,2
176.054,1,0
176.058,0,0
176.058,0,1
176.062,2,3
176.062,3,2
176.066,1,1
176.066,2,2
176.066,2,2
176.071,2,2
176.071,1,1
176.075,1,1
176.075,1,2
176.079,3,3
176.079,1,1
176.079,1,1
176.083,1,2
176.083,2,1
176.087,1,1
176.087,1,2
176.091,2,3
176.091,2,1
176.091,1,1
176.095,1,2
176.095,2,2
176.099,2,2
176.099,2,1
176.103,1,1
176.103,0,1
176.103,1,2
176.107,2,2
176.107,2,2
176.112,1,1
176.112,1,1
176.116,1,1
176.116,1,2
176.116,2,2
176.12,1,1
176.12,1,1
176.124,2,3
176.124,3,2
176.128,1,1
176.128,1,1
176.128,1,0
176.132,0,1
176.132,2,2
176.136,2,1
176.136,1,1
176.136,1,1
176.14,1,2
176.14,1,1
176.144,0,1
176.144,2,3
176.148,4,2
176.148,0,0
176.148,0,0
176.152,2,3
176.152,4,4
176.157,2,1
176.157,0,0
176.161,0,1
176.161,2,2
176.161,2,2
176.165,1,2
176.165,2,2
176.169,2,2
176.169,1,1
176.173,0,0
176.173,0,1
176.173,1,1
176.177,1,1
176.177,1,1
176.181,1,1
176.181,1,2
176.185,2,2
176.185,2,2
176.185,1,2
176.189,2,3
176.189,3,2
176.193,1,1
176.193,1,1
176.198,1,0
176.198,0,0
176.198,1,2
176.202,2,2
176.202,2,2
176.206,2,1
176.206,1,1
176.21,0,0
176.21,0,1
176.21,3,3
176.214,3,2
176.214,1,1
176.218,1,2
176.218,2,2
176.222,2,2
176.222,2,2
176.222,1,2
176.226,2,2
176.226,1,0
176.23,0,0
176.23,1,1
176.234,1,2
176.234,2,2
176.234,2,2
176.238,2,2
176.238,2,2
176.243,1,1
176.243,1,1
176.243,1,1
176.247,0,1
176.247,1,1
176.251,2,2
176.251,2,2
176.255,2,1
176.255,0,0
176.255,0,1
176.259,4,6
176.259,5,3
176.263,0,0
176.263,0,1
176.267,1,1
176.267,1,1
176.267,0,0
176.271,2,2
176.271,2,1
176.275,1,1
176.275,0,1
176.28,1,1
176.28,1,1
176.28,1,1
176.284,2,2
176.284,2,2
176.288,2,2
176.288,2,2
176.292,2,2
176.292,1,1
176.292,1,1
176.296,1,1
176.296,1,2
176.3,2,2
176.3,2,2
176.304,2,2
176.304,2,2
176.304,3,3
176.308,1,0
176.308,0,0
176.312,0,0
176.312,1,1
176.316,1,1
176.316,2,2
176.316,2,2
176.32,2,2
176.32,2,2
176.325,2,2
176.325,2,1
176.325,1,1
176.329,1,1
176.329,1,0
176.333,1,0
176.333,1,1
176.337,2,3
176.337,4,2
176.337,1,1
176.341,1,1
176.341,2,2
176.345,1,0
176.345,0,0
176.349,1,2
176.349,2,2
176.349,1,1
176.353,1,2
176.353,2,2
176.357,2,2
176.357,1,2
176.361,2,2
176.361,2,2
176.361,2,2
176.366,1,1
176.366,1,1
176.37,2,2
176.37,2,1
176.374,1,0
176.374,0,0
176.374,1,1
176.378,0,0
176.378,1,1
176.382,2,3
176.382,3,3
176.386,2,1
176.386,1,1
176.386,2,2
176.39,1,0
176.39,0,0
176.394,1,1
176.394,1,2
176.398,2,1
176.398,0,0
176.398,2,3
176.402,4,4
176.402,3,2
176.406,0,0
176.406,0,0
176.411,1,1
176.411,1,2
176.411,2,2
176.415,2,3
176.415,2,1
176.419,0,0
176.419,2,1
176.419,1,1
176.423,1,1
176.423,2,2
176.427,2,2
176.427,2,2
176.431,2,2
176.431,2,1
176.431,1,1
176.435,0,1
176.435,2,2
176.439,1,1
176.439,2,2
176.443,3,1
176.443,1,1
176.443,1,1
176.447,1,1
176.447,0,1
176.451,1,2
176.451,2,2
176.456,2,2
176.456,2,2
176.456,1,1
176.46,1,1
176.46,1,2
176.464,2,2
176.464,2,2
176.468,2,2
176.468,2,2
176.468,1,1
176.472,1,1
176.472,1,1
176.476,1,1
176.476,1,1
176.48,1,1
176.48,2,3
176.48,3,3
176.484,2,1
176.484,1,0
176.488,0,1
176.488,1,2
176.492,2,2
176.492,1,2
176.492,2,2
176.497,2,1
176.497,1,1
176.501,1,1
176.501,1,1
176.505,2,3
176.505,3,2
176.505,1,1
176.509,2,1
176.509,0,0
176.513,1,2
176.513,2,1
176.517,0,0
176.517,1,5
176.517,5,3
176.521,1,0
176.521,0,1
176.525,1,1
176.525,0,0
176.525,1,1
176.529,2,2
176.529,2,1
176.533,1,1
176.533,1,1
176.538,2,2
176.538,2,2
176.538,2,2
176.542,1,2
176.542,2,3
176.546,2,2
176.546,2,1
176.55,1,1
176.55,1,0
176.55,0,1
176.554,1,1
176.554,1,2
176.558,2,2
176.558,2,2
176.562,1,1
176.562,1,1
176.562,1,1
176.566,1,2
176.566,3,3
176.57,3,1
176.57,1,0
176.574,1,1
176.574,1,1
176.574,1,2
176.578,3,3
176.578,1,1
176.583,1,2
176.583,2,1
176.587,1,1
176.587,1,1
176.587,1,0
176.591,0,1
176.591,2,2
176.595,2,2
176.595,1,1
176.599,1,1
176.599,2,2
176.599,2,2
176.603,2,3
176.603,1,1
176.607,1,0
176.607,1,2
176.611,2,2
176.611,2,2
176.611,1,1
176.615,2,2
176.615,2,1
176.619,1,1
176.619,1,1
176.619,0,0
176.623,0,0
176.623,2,4
176.628,4,3
176.628,2,1
176.632,0,0
176.632,0,1
176.632,1,0
176.636,1,1
176.636,1,1
176.64,2,1
176.64,1,1
176.644,1,2
176.644,2,2
176.644,2,2
176.648,2,2
176.648,3,1
176.652,1,1
176.652,1,1
176.656,1,1
176.656,1,1
176.656,1,0
176.66,1,1
176.66,1,1
176.664,2,2
176.664,3,2
176.669,2,2
176.669,1,1
176.669,1,1
176.673,2,2
176.673,2,2
176.677,2,2
176.677,2,2
176.681,2,2
176.681,1,1
176.681,0,1
176.685,1,1
176.685,1,0
176.689,1,1
176.689,1,1
176.693,1,1
176.693,1,2
176.693,2,2
176.697,2,2
176.697,3,2
176.701,1,1
176.701,1,1
176.705,1,2
176.705,2,2
176.705,2,2
176.709,2,1
176.709,1,1
176.714,1,1
176.714,1,1
176.718,0,1
176.718,1,1
176.718,1,2
176.722,2,2
176.722,2,2
176.726,2,2
176.726,2,2
176.726,2,2
176.73,1,1
176.73,1,0
176.734,0,0
176.734,0,0
176.738,2,5
176.738,5,3
176.738,1,0
176.742,0,0
176.742,0,2
176.746,1,1
176.746,1,1
176.75,1,1
176.75,1,1
176.751,1,0
176.755,0,1
176.755,1,1
176.759,2,2
176.759,3,3
176.763,2,2
176.763,2,2
176.763,2,1
176.767,1,0
176.767,0,1
176.771,1,1
176.771,1,1
176.775,1,1
176.775,2,2
176.775,2,2
176.779,1,1
176.779,1,1
176.783,1,1
176.783,1,2
176.787,3,3
176.787,3,2
176.787,1,1
176.791,0,0
176.791,1,1
176.796,2,2
176.796,2,2
176.8,1,1
176.8,1,2
176.8,2,1
176.804,1,1
176.804,2,2
176.808,2,2
176.808,2,2
176.812,1,1
176.812,0,0
176.812,1,2
176.816,2,3
176.816,2,2
176.82,2,2
176.82,2,1
176.82,1,1
176.824,1,1
176.824,1,1
176.828,1,0
176.828,1,1
176.832,2,2
176.832,2,1
176.832,0,0
176.836,0,2
176.836,3,5
176.841,4,3
176.841,1,0
176.845,0,0
176.845,0,1
176.845,1,1
176.849,1,1
176.849,1,1
176.853,1,1
176.853,1,1
176.857,0,0
176.857,1,2
176.857,3,3
176.861,2,1
176.861,1,2
176.865,2,2
176.865,2,1
176.869,1,1
176.869,0,0
176.869,0,1
176.873,1,1
176.873,0,0
176.878,1,2
176.878,2,3
176.882,3,2
176.882,2,2
176.882,2,3
176.886,3,2
176.886,1,1
176.89,1,1
176.89,1,1
176.894,0,0
176.894,1,1
176.894,1,1
176.898,1,1
176.898,1,2
176.902,2,2
176.902,2,1
176.906,1,1
176.906,2,2
176.906,3,3
176.91,3,3
176.91,1,0
176.914,0,0
176.914,1,1
176.914,1,1
176.918,2,2
176.918,3,2
176.922,2,1
176.922,1,1
176.927,1,2
176.927,3,3
176.927,2,2
176.931,1,1
176.931,1,1
176.935,1,1
176.935,1,1
176.939,1,1
176.939,1,0
176.939,1,1
176.943,1,1
176.943,1,0
176.947,1,1
176.947,3,6
176.951,5,2
176.951,0,0
176.951,0,0
176.955,0,1
176.955,2,2
176.959,2,2
176.959,2,2
176.963,2,1
176.963,1,2
176.964,2,1
176.968,1,1
176.968,2,1
176.972,1,1
176.972,1,2
176.976,3,3
176.976,2,2
176.976,1,1
176.98,1,2
176.98,2,2
176.984,2,2
176.984,2,1
176.988,1,2
176.988,2,2
176.988,2,2
176.992,1,1
176.992,1,1
176.996,1,2
176.996,1,0
177,0,1
177,2,2
177,3,3
177.004,3,3
177.004,2,2
177.008,1,1
177.008,2,2
177.013,2,1
177.013,0,0
177.013,1,0
177.017,0,1
177.017,1,2
177.021,2,2
177.021,1,1
177.021,1,2
177.025,2,2
177.025,2,2
177.029,2,2
177.029,2,2
177.033,1,1
177.033,1,1
177.033,1,1
177.037,1,0
177.037,1,2
177.041,2,1
177.041,0,0
177.045,1,3
177.045,4,3
177.045,2,1
177.049,1,0
177.049,0,0
177.054,2,2
177.054,2,1
177.058,1,1
177.058,1,1
177.058,1,1
177.062,1,1
177.062,2,2
177.066,1,2
177.066,2,1
177.07,1,0
177.07,0,0
177.07,2,2
177.074,1,1
177.074,1,1
177.078,2,2
177.078,2,2
177.082,2,2
177.082,2,2
177.082,3,2
177.086,1,1
177.086,1,0
177.09,0,2
177.09,2,1
177.094,1,1
177.095,1,1
177.095,0,1
177.099,1,1
177.099,1,1
177.103,2,2
177.103,2,2
177.107,2,2
177.107,1,1
177.107,1,2
177.111,2,1
177.111,1,1
177.115,1,2
177.115,2,2
177.115,2,2
177.119,2,2
177.119,2,1
177.123,1,1
177.123,1,1
177.127,1,1
177.127,1,0
177.127,1,1
177.131,1,1
177.131,1,1
177.135,1,2
177.135,2,1
177.14,1,1
177.14,3,6
177.14,6,2
177.144,0,0
177.144,0,0
177.148,0,0
177.148,0,1
177.152,1,1
177.152,1,1
177.152,2,1
177.156,1,1
177.156,1,2
177.16,2,2
177.16,2,1
177.164,1,2
177.164,2,2
177.164,2,1
177.168,1,2
177.168,2,2
177.172,2,2
177.172,2,1
177.176,0,0
177.176,0,0
177.176,1,1
177.181,2,2
177.181,3,3
177.185,2,2
177.185,2,1
177.189,1,0
177.189,0,0
177.189,1,2
177.193,2,2
177.193,1,2
177.197,2,2
177.197,2,1
177.201,1,0
177.201,1,1
177.201,2,3
177.205,3,2
177.205,2,1
177.209,1,1
177.209,1,1
177.209,1,1
177.213,1,1
177.213,1,1
177.217,2,2
177.217,2,2
177.222,3,2
177.222,2,2
177.222,1,1
177.226,0,1
177.226,1,1
177.23,1,1
177.23,0,0
177.234,1,1
177.234,1,0
177.234,0,1
177.238,2,3
177.238,3,5
177.242,4,2
177.242,0,0
177.246,0,0
177.246,2,1
177.246,1,1
177.25,1,1
177.25,1,1
177.254,1,1
177.254,0,1
177.258,2,2
177.258,2,2
177.258,2,1
177.262,1,1
177.262,1,1
177.267,1,1
177.267,1,1
177.271,1,1
177.271,0,1
177.271,1,1
177.275,1,1
177.275,1,1
177.279,1,2
177.279,2,3
177.283,3,3
177.283,2,2
177.283,2,2
177.287,1,1
177.287,1,1
177.291,0,0
177.291,0,0
177.295,1,1
177.295,2,2
177.295,2,1
177.299,2,2
177.299,3,3
177.303,2,2
177.303,2,1
177.303,1,1
177.307,1,0
177.308,0,0
177.312,1,1
177.312,2,2
177.316,2,2
177.316,2,2
177.316,2,1
177.32,1,2
177.32,2,2
177.324,2,2
177.324,2,2
177.328,1,1
177.328,1,1
177.328,2,2
177.332,2,2
177.332,1,1
177.336,1,2
177.336,2,2
177.34,2,2
177.34,2,2
177.34,2,1
177.344,1,1
177.344,2,2
177.348,1,0
177.348,0,0
177.353,0,1
177.353,3,6
177.353,5,2
177.357,0,0
177.357,0,0
177.361,1,1
177.361,1,1
177.365,1,1
177.365,1,1
177.365,1,0
177.369,1,1
177.369,2,2
177.373,2,2
177.373,2,2
177.377,2,2
177.377,1,1
177.377,1,2
177.381,3,3
177.381,2,1
177.385,1,0
177.385,0,1
177.385,1,1
177.389,1,1
177.389,1,1
177.393,1,2
177.393,2,2
177.398,2,2
177.398,2,2
177.398,2,2
177.402,2,1
177.402,1,1
177.406,1,1
177.406,0,1
177.41,1,2
177.41,2,1
177.41,1,1
177.414,2,3
177.414,3,2
177.418,1,0
177.418,0,1
177.422,2,2
177.422,2,1
177.422,0,0
177.426,1,2
177.426,2,2
177.43,2,2
177.43,2,1
177.434,1,0
177.434,0,1
177.435,1,1
177.439,2,2
177.439,2,2
177.443,2,2
177.443,2,2
177.447,2,2
177.447,1,1
177.447,1,0
177.451,1,0
177.451,0,0
177.455,2,5
177.455,5,3
177.459,1,0
177.459,0,1
177.459,1,1
177.463,2,2
177.463,3,2
177.468,2,2
177.468,1,1
177.471,0,0
177.471,0,1
177.471,1,2
177.475,2,2
177.475,2,2
177.48,2,2
177.48,1,1
177.484,1,2
177.484,2,2
177.484,2,2
177.488,1,1
177.488,2,2
177.492,2,2
177.492,1,1
177.492,1,1
177.496,1,1
177.496,2,2
177.5,2,2
177.5,2,2
177.504,2,1
177.504,1,1
177.504,1,1
177.508,1,2
177.508,2,2
177.512,2,1
177.512,1,1
177.516,1,2
177.516,2,3
177.516,2,2
177.52,1,1
177.52,1,1
177.525,1,1
177.525,1,1
177.529,1,1
177.529,1,0
177.529,1,1
177.533,2,2
177.533,2,2
177.537,2,2
177.537,1,1
177.541,1,1
177.541,2,2
177.541,3,3
177.545,1,1
177.545,0,1
177.549,2,2
177.549,2,1
177.553,1,2
177.553,2,2
177.553,1,0
177.557,0,0
177.557,2,5
177.561,5,3
177.561,1,1
177.566,0,0
177.566,0,0
177.566,1,1
177.57,1,1
177.57,1,1
177.574,1,1
177.574,1,1
177.578,1,1
177.578,2,2
177.578,1,1
177.582,2,2
177.582,3,3
177.586,1,1
177.586,1,1
177.586,1,0
177.59,1,1
177.59,1,1
177.594,2,2
177.594,1,1
177.598,0,1
177.598,1,2
177.598,3,3
177.602,3,2
177.602,2,2
177.606,2,1
177.606,0,0
177.611,0,0
177.611,1,1
177.611,1,1
177.615,1,1
177.615,1,1
177.619,1,1
177.619,1,2
177.623,3,3
177.623,3,2
177.623,1,1
177.627,1,1
177.627,1,1
177.631,1,1
177.631,1,1
177.635,1,1
177.635,1,1
177.635,1,1
177.639,2,1
177.639,1,1
177.643,0,1
177.643,1,1
177.648,1,1
177.648,1,1
177.648,0,1
177.652,2,2
177.652,2,2
177.656,2,2
177.656,1,1
177.66,1,1
177.66,1,2
177.66,2,1
177.664,0,0
177.664,2,4
177.668,5,4
177.668,3,1
177.672,0,0
177.672,0,0
177.672,0,1
177.676,1,1
177.676,2,2
177.68,1,1
177.68,2,2
177.68,3,3
177.684,1,1
177.684,1,2
177.688,2,1
177.688,0,0
177.693,0,1
177.693,2,3
177.693,3,1
177.697,1,1
177.697,1,1
177.701,1,1
177.701,1,1
177.705,1,1
177.705,1,0
177.705,1,1
177.709,1,2
177.709,2,2
177.713,2,2
177.713,2,2
177.717,1,1
177.717,2,2
177.717,2,2
177.721,2,2
177.721,2,1
177.725,1,1
177.725,2,2
177.729,3,2
177.729,1,1
177.729,0,1
177.733,2,1
177.733,1,1
177.738,1,1
177.738,2,2
177.742,2,2
177.742,2,2
177.742,2,1
177.746,1,2
177.746,2,2
177.75,2,2
177.75,2,1
177.754,1,1
177.754,1,1
177.754,1,1
177.758,1,1
177.758,1,1
177.762,2,2
177.762,2,2
177.766,2,2
177.766,3,1
177.766,0,0
177.77,1,4
177.77,4,3
177.774,1,0
177.774,0,0
177.774,1,1
177.778,1,2
177.779,2,2
177.783,2,2
177.783,2,2
177.787,1,2
177.787,2,2
177.787,2,2
177.791,1,1
177.791,1,1
177.795,2,2
177.795,2,2
177.799,2,2
177.799,2,1
177.799,1,1
177.803,1,0
177.803,1,1
177.807,1,1
177.807,1,1
177.811,1,1
177.811,1,1
177.811,1,1
177.815,1,2
177.815,2,2
177.819,2,2
177.819,1,1
177.824,2,2
177.824,2,2
177.824,1,1
177.828,1,2
177.828,3,2
177.832,3,2
177.832,2,1
177.836,0,0
177.836,0,0
177.836,1,1
177.84,1,2
177.84,2,3
177.844,2,2
177.844,2,1
177.848,0,0
177.848,0,1
177.848,2,2
177.852,3,3
177.852,1,1
177.856,0,2
177.856,2,1
177.86,1,0
177.86,0,0
177.86,1,2
177.864,3,5
177.865,4,3
177.869,1,0
177.869,0,0
177.873,0,1
177.873,2,2
177.873,2,2
177.877,1,1
177.877,1,1
177.881,1,1
177.881,2,2
177.881,2,2
177.885,2,2
177.885,1,1
177.889,2,2
177.889,2,2
177.893,2,2
177.893,2,1
177.893,1,1
177.897,1,1
177.897,1,1
177.901,1,2
177.901,2,1
177.905,1,2
177.906,3,2
177.906,2,2
177.91,2,2
177.91,2,1
177.914,0,0
177.914,1,2
177.918,2,1
177.918,1,1
177.918,1,1
177.922,1,2
177.922,2,2
177.926,2,1
177.926,1,1
177.93,1,1
177.93,1,2
177.93,3,3
177.934,2,2
177.934,1,1
177.938,2,2
177.938,1,1
177.942,0,1
177.942,1,2
177.942,3,3
177.946,3,2
177.946,1,0
177.951,0,0
177.951,1,2
177.955,3,3
177.955,1,1
177.955,0,1
177.959,2,2
177.959,2,2
177.963,2,2
177.963,2,2
177.967,1,0
177.967,0,0
177.967,1,4
177.971,4,3
177.971,1,0
177.975,0,0
177.975,1,1
177.975,2,2
177.979,2,1
177.979,2,2
177.983,2,2
177.983,2,3
177.987,2,1
177.987,1,0
177.987,0,0
177.991,0,0
177.991,1,1
177.996,2,2
177.996,2,2
178,2,2
178,2,3
178,2,2
178.004,1,1
178.004,1,0
178.008,0,0
178.008,1,1
178.012,1,1
178.012,1,2
178.012,2,2
178.016,2,1
178.016,1,2
178.02,2,2
178.02,2,2
178.024,2,2
178.024,2,1
178.024,0,1
178.028,1,1
178.028,1,1
178.032,2,2
178.032,1,2
178.037,2,2
178.037,1,1
178.037,2,2
178.041,2,2
178.041,2,2
178.045,2,1
178.045,1,1
178.049,0,2
178.049,1,1
178.049,1,1
178.053,1,0
178.053,1,1
178.057,1,1
178.057,1,2
178.057,2,2
178.061,2,3
178.061,2,2
178.065,2,1
178.065,1,0
178.069,0,0
178.069,1,1
178.069,1,1
178.073,1,0
178.073,1,1
178.078,4,6
178.078,5,3
178.082,1,0
178.082,0,0
178.082,0,0
178.086,2,2
178.086,1,1
178.09,1,1
178.09,1,1
178.094,0,1
178.094,1,1
178.094,1,2
178.098,2,2
178.098,2,2
178.102,2,3
178.102,1,1
178.106,1,0
178.106,1,1
178.106,1,1
178.11,1,2
178.11,2,2
178.114,2,2
178.114,1,1
178.118,1,2
178.119,2,3
178.119,2,2
178.123,2,2
178.123,1,0
178.127,0,0
178.127,0,1
178.131,1,2
178.131,2,2
178.131,2,2
178.135,2,2
178.135,2,1
178.139,1,1
178.139,1,2
178.143,3,2
178.143,2,2
178.143,1,1
178.147,1,1
178.147,1,1
178.151,0,1
178.151,1,1
178.155,1,1
178.155,1,2
178.155,1,1
178.159,1,1
178.159,2,3
178.163,4,2
178.164,2,1
178.164,1,1
178.168,1,1
178.168,1,1
178.172,1,1
178.172,0,0
178.176,1,1
178.176,1,0
178.176,0,1
178.18,3,6
178.18,6,3
178.184,0,0
178.184,0,0
178.188,0,0
178.188,0,1
178.188,1,1
178.192,2,2
178.192,2,2
178.196,2,2
178.196,1,2
178.2,2,2
178.2,2,2
178.2,1,1
178.204,2,2
178.204,3,2
178.209,2,2
178.209,1,1
178.213,1,0
178.213,0,0
178.213,1,1
178.217,1,1
178.217,3,3
178.221,3,1
178.221,1,1
178.225,1,1
178.225,1,1
178.225,1,1
178.229,1,1
178.229,1,0
178.233,1,1
178.233,1,1
178.237,1,1
178.237,1,1
178.237,2,2
178.241,3,3
178.241,2,2
178.246,2,2
178.246,2,2
178.25,1,0
178.25,0,0
178.25,0,1
178.254,2,2
178.254,1,1
178.258,1,1
178.258,2,3
178.258,3,2
178.262,2,2
178.262,2,1
178.266,1,1
178.266,1,1
178.27,1,1
178.27,0,0
178.27,0,0
178.274,3,5
178.274,5,3
178.278,0,0
178.278,0,0
178.282,0,0
178.282,1,1
178.282,1,1
178.286,1,1
178.286,2,2
178.29,2,2
178.29,2,2
178.295,2,1
178.295,1,1
178.295,2,2
178.299,2,2
178.299,2,2
178.303,2,1
178.303,1,2
178.307,2,1
178.307,1,1
178.307,1,1
178.311,0,0
178.311,0,0
178.315,1,2
178.315,3,3
178.319,3,3
178.319,3,3
178.319,2,2
178.323,1,1
178.323,1,1
178.327,0,0
178.327,0,2
178.331,1,1
178.332,1,1
178.332,1,1
178.336,1,1
178.336,0,1
178.34,2,3
178.34,4,2
178.344,2,1
178.344,0,0
178.344,1,1
178.348,2,2
178.348,1,1
178.352,1,1
178.352,2,2
178.352,1,2
178.356,2,2
178.356,1,1
178.36,0,1
178.36,2,3
178.364,3,2
178.364,2,1
178.364,1,1
178.368,1,1
178.368,1,1
178.372,1,0
178.372,0,1
178.377,1,1
178.377,1,0
178.377,0,2
178.381,4,6
178.381,5,2
178.385,0,0
178.385,0,0
178.389,1,2
178.389,2,2
178.389,2,2
178.393,2,1
178.393,1,0
178.397,0,1
178.397,2,2
178.401,2,3
178.401,3,2
178.401,1,1
178.405,1,1
178.405,1,1
178.409,1,1
178.409,0,0
178.413,1,1
178.413,1,1
178.413,1,1
178.417,2,2
178.417,2,2
178.422,2,2
178.422,2,2
178.426,2,2
178.426,1,1
178.426,1,1
178.43,1,1
178.43,0,1
178.434,1,1
178.434,0,1
178.434,1,0
178.438,1,2
178.438,2,3
178.442,2,2
178.442,2,2
178.446,2,1
178.446,0,1
178.446,1,1
178.45,1,1
178.45,2,2
178.454,1,1
178.454,1,1
178.458,2,2
178.458,3,3
178.458,2,2
178.462,1,1
178.462,1,0
178.467,0,0
178.467,0,1
178.471,1,2
178.471,2,2
178.471,1,1
178.475,2,2
178.475,2,2
178.479,2,2
178.479,1,2
178.483,2,2
178.483,2,1
178.483,1,1
178.487,1,1
178.487,1,3
178.491,4,3
178.491,1,0
178.495,0,1
178.495,1,1
178.495,1,2
178.499,2,2
178.499,2,2
178.503,2,2
178.503,2,2
178.508,1,1
178.508,1,1
178.508,1,1
178.512,2,2
178.512,2,2
178.516,2,2
178.516,2,2
178.52,1,1
178.52,2,2
178.52,1,1
178.524,0,0
178.524,1,1
178.528,2,2
178.528,2,2
178.532,1,2
178.532,2,2
178.532,2,2
178.536,2,2
178.536,2,2
178.54,2,1
178.54,1,0
178.54,0,1
178.544,1,2
178.544,2,2
178.548,2,1
178.548,1,1
178.553,2,2
178.553,2,2
178.553,2,2
178.557,2,1
178.557,1,1
178.561,1,1
178.561,2,2
178.565,2,2
178.565,2,2
178.565,2,2
178.569,2,1
178.569,1,1
178.573,2,2
178.573,1,1
178.577,1,1
178.577,2,2
178.577,2,2
178.581,1,2
178.581,2,1
178.585,2,2
178.585,3,2
178.589,2,1
178.589,1,0
178.589,1,1
178.594,1,1
178.594,1,0
178.598,1,1
178.598,1,1
178.602,1,0
178.602,0,0
178.602,1,3
178.606,4,5
178.606,6,3
178.61,0,0
178.61,0,1
178.614,2,2
178.614,2,2
178.614,1,1
178.618,1,1
178.618,1,0
178.622,1,1
178.622,1,1
178.626,2,2
178.626,1,1
178.626,2,2
178.63,1,2
178.63,2,2
178.635,2,2
178.635,2,2
178.635,1,1
178.639,1,1
178.639,1,0
178.643,1,1
178.643,2,2
178.647,2,2
178.647,2,2
178.647,1,1
178.651,1,1
178.651,1,1
178.655,1,2
178.655,3,3
178.659,2,1
178.659,1,1
178.659,0,1
178.663,1,2
178.663,2,2
178.667,1,1
178.667,1,1
178.671,1,0
178.671,0,0
178.671,0,1
178.675,1,2
178.675,2,2
178.68,2,3
178.68,2,2
178.684,2,2
178.684,2,1
178.684,1,1
178.688,2,2
178.688,1,0
178.692,0,0
178.692,0,1
178.696,2,2
178.696,3,3
178.696,1,1
178.7,1,1
178.7,1,1
178.704,1,0
178.704,1,1
178.708,2,4
178.708,4,3
178.708,0,0
178.712,0,0
178.712,1,1
178.716,0,1
178.716,1,2
178.721,2,3
178.721,2,2
178.721,1,1
178.725,1,1
178.725,1,1
178.729,0,1
178.729,1,1
178.729,1,1
178.733,2,2
178.733,2,2
178.737,2,2
178.737,2,2
178.741,2,2
178.741,2,1
178.741,1,1
178.745,2,2
178.745,2,2
178.749,2,1
178.749,1,1
178.753,1,2
178.753,2,2
178.753,1,1
178.757,0,1
178.757,2,3
178.761,4,2
178.761,1,0
178.766,0,2
178.766,1,2
178.766,2,1
178.77,1,0
178.77,0,1
178.774,2,2
178.774,2,1
178.778,2,2
178.778,2,2
178.778,2,1
178.782,1,1
178.782,1,1
178.786,1,0
178.786,1,1
178.79,2,2
178.79,2,1
178.79,1,1
178.794,1,1
178.794,1,1
178.798,1,2
178.798,2,2
178.803,3,3
178.803,1,1
178.803,1,1
178.807,1,1
178.807,1,1
178.811,1,1
178.811,1,0
178.815,0,1
178.815,2,2
178.815,2,2
178.819,2,1
178.819,2,2
178.823,2,2
178.823,2,1
178.823,1,1
178.827,1,2
178.827,2,2
178.831,1,0
178.831,0,0
178.835,2,4
178.835,5,4
178.835,2,1
178.839,0,0
178.839,1,2
178.843,2,2
178.843,2,1
178.848,0,0
178.848,0,2
178.848,1,1
178.852,1,1
178.852,1,1
178.856,1,1
178.856,2,2
178.86,2,1
178.86,1,2
178.86,3,3
178.864,2,1
178.864,1,0
178.868,0,1
178.868,1,2
178.872,2,2
178.872,1,1
178.872,1,1
178.876,1,1
178.876,1,2
178.88,2,3
178.88,3,1
178.884,1,1
178.884,1,1
178.884,1,1
178.888,2,1
178.888,0,0
178.893,1,2
178.893,1,1
178.897,1,1
178.897,2,3
178.897,3,2
178.901,2,1
178.901,1,1
178.905,0,0
178.905,1,1
178.909,1,2
178.909,3,3
178.909,1,1
178.913,1,1
178.913,1,1
178.917,0,1
178.917,1,1
178.921,1,1
178.921,2,2
178.921,2,2
178.925,2,2
178.925,2,2
178.929,1,1
178.929,1,1
178.929,1,1
178.934,2,2
178.934,2,2
178.938,2,2
178.938,2,2
178.942,2,1
178.942,1,0
178.942,0,1
178.946,1,1
178.946,1,1
178.95,2,2
178.95,2,2
178.954,1,1
178.954,0,0
178.954,1,2
178.958,4,6
178.958,5,2
178.962,0,-1
178.962,0,0
178.966,1,1
178.966,2,1
178.966,1,1
178.97,1,0
178.97,1,1
178.974,2,2
178.975,2,2
178.979,2,2
178.979,2,2
178.979,2,1
178.983,1,1
178.983,2,2
178.987,2,2
178.987,1,2
178.991,2,1
178.991,2,2
178.991,2,2
178.995,2,2
178.995,1,1
178.999,1,1
178.999,1,2
179.003,2,2
179.003,3,2
179.003,1,1
179.007,1,2
179.007,2,2
179.011,1,1
179.011,1,1
179.015,1,2
179.015,3,2
179.015,2,1
179.02,2,3
179.02,2,2
179.024,1,1
179.024,1,0
179.024,0,1
179.028,1,1
179.028,2,1
179.032,1,2
179.032,2,2
179.036,2,1
179.036,1,2
179.036,2,2
179.04,1,1
179.04,1,1
179.044,1,2
179.044,2,2
179.048,2,1
179.048,1,1
179.048,1,2
179.052,2,3
179.052,3,1
179.056,0,0
179.056,0,0
179.061,1,3
179.061,4,3
179.061,3,1
179.065,0,0
179.065,0,0
179.069,1,2
179.069,2,2
179.073,2,1
179.073,1,1
179.073,1,1
179.077,2,2
179.077,3,3
179.081,1,1
179.081,1,1
179.085,1,0
179.085,1,2
179.085,2,2
179.089,2,1
179.089,1,0
179.093,1,1
179.093,1,0
179.097,1,0
179.097,1,1
179.097,1,2
179.101,3,3
179.101,2,2
179.106,2,1
179.106,2,2
179.11,2,2
179.11,1,1
179.11,1,2
179.114,2,3
179.114,2,2
179.118,2,2
179.118,1,1
179.122,0,0
179.122,1,1
179.122,1,1
179.126,1,1
179.126,1,1
179.13,0,1
179.13,1,1
179.13,1,1
179.134,1,2
179.134,2,2
179.138,3,3
179.138,1,1
179.142,1,1
179.142,1,1
179.142,1,1
179.147,1,1
179.147,1,0
179.151,1,1
179.151,1,1
179.155,1,1
179.155,2,4
179.155,4,3
179.159,2,1
179.159,0,1
179.163,1,1
179.163,0,1
179.167,1,1
179.167,1,0
179.167,1,1
179.171,1,1
179.171,1,1
179.175,1,1
179.175,2,2
179.179,2,2
179.179,2,2
179.179,2,2
179.183,2,2
179.183,2,1
179.187,1,1
179.187,1,1
179.192,2,2
179.192,2,1
179.192,1,2
179.196,2,2
179.196,2,2
179.2,2,2
179.2,1,1
179.204,1,1
179.204,1,1
179.204,1,1
179.208,1,1
179.208,0,1
179.212,1,1
179.212,2,2
