Program Time [s],data 0,data 1
135.432,0,0
135.432,1,2
135.436,2,2
135.436,2,2
135.44,2,1
135.44,1,1
135.44,1,1
135.444,1,1
135.445,1,2
135.449,3,3
135.449,3,2
135.453,1,1
135.453,0,0
135.453,1,1
135.457,1,1
135.457,0,0
135.461,2,2
135.461,3,3
135.461,3,2
135.465,2,1
135.465,1,1
135.469,1,1
135.469,1,1
135.473,1,1
135.473,0,0
135.473,1,2
135.477,2,1
135.477,1,1
135.481,2,2
135.481,2,1
135.485,1,2
135.486,2,2
135.486,2,2
135.49,1,2
135.49,3,2
135.494,2,2
135.494,1,1
135.498,0,0
135.498,0,0
135.498,1,1
135.502,2,2
135.502,2,2
135.506,2,2
135.506,2,2
135.51,2,2
135.51,1,2
135.51,2,2
135.514,2,1
135.514,0,0
135.518,0,1
135.518,1,2
135.522,3,3
135.522,3,1
135.522,1,1
135.526,1,1
135.526,1,1
135.531,1,1
135.531,1,1
135.535,1,1
135.535,0,1
135.535,0,1
135.539,1,3
135.539,4,3
135.543,2,0
135.543,0,0
135.547,1,3
135.547,4,4
135.547,3,1
135.551,1,0
135.551,0,0
135.555,0,1
135.555,1,1
135.555,2,2
135.559,3,2
135.559,2,2
135.563,1,1
135.563,2,2
135.567,2,2
135.567,2,2
135.567,2,2
135.571,1,1
135.572,1,1
135.576,1,0
135.576,1,1
135.58,2,2
135.58,2,1
135.58,1,1
135.584,1,1
135.584,2,3
135.588,3,2
135.588,2,1
135.592,1,1
135.592,1,0
135.592,0,1
135.596,1,1
135.596,2,2
135.6,1,2
135.6,2,2
135.604,2,2
135.604,2,2
135.604,2,1
135.608,1,1
135.608,1,1
135.612,1,0
135.612,1,1
135.617,1,1
135.617,2,2
135.617,2,1
135.621,1,1
135.621,2,2
135.625,2,2
135.625,2,2
135.629,2,2
135.629,1,1
135.629,1,0
135.633,1,1
135.633,2,2
135.637,1,1
135.637,1,1
135.637,2,2
135.641,2,2
135.641,2,2
135.645,2,1
135.645,1,2
135.649,2,2
135.649,2,2
135.649,1,1
135.653,1,1
135.653,0,1
135.657,1,1
135.657,1,1
135.662,2,2
135.662,2,2
135.662,2,2
135.666,3,2
135.666,1,1
135.67,1,1
135.67,1,0
135.674,0,0
135.674,1,2
135.674,3,3
135.678,1,1
135.678,0,1
135.682,2,1
135.682,1,1
135.686,3,4
135.686,4,1
135.686,0,0
135.69,1,1
135.69,0,0
135.694,2,1
135.694,1,0
135.698,0,1
135.698,2,2
135.699,2,3
135.703,2,2
135.703,1,1
135.707,1,2
135.707,2,2
135.711,2,2
135.711,1,2
135.711,2,2
135.715,2,1
135.715,1,1
135.719,1,0
135.719,1,1
135.723,1,2
135.723,2,2
135.723,2,2
135.727,2,2
135.727,1,1
135.731,1,1
135.731,1,0
135.735,1,1
135.735,1,1
135.735,1,1
135.739,1,1
135.739,2,2
135.744,2,2
135.744,2,2
135.744,2,2
135.748,2,2
135.748,1,1
135.752,1,2
135.752,2,2
135.756,1,1
135.756,2,2
135.756,1,1
135.76,1,1
135.76,2,2
135.764,2,1
135.764,1,2
135.768,2,2
135.768,2,1
135.768,1,1
135.772,2,2
135.772,2,2
135.776,2,2
135.776,1,1
135.78,1,1
135.78,2,2
135.78,3,2
135.784,1,1
135.784,0,2
135.789,2,1
135.789,1,1
135.793,1,0
135.793,1,2
135.793,2,2
135.797,2,2
135.797,1,1
135.801,0,0
135.801,0,1
135.805,1,2
135.805,2,2
135.805,2,2
135.809,2,2
135.809,2,2
135.813,2,1
135.813,1,1
135.817,1,1
135.817,1,2
135.817,2,1
135.821,1,2
135.821,1,0
135.825,0,1
135.825,3,5
135.829,5,2
135.83,1,1
135.83,0,1
135.834,1,1
135.834,1,0
135.838,0,1
135.838,2,1
135.838,1,1
135.842,1,2
135.842,2,2
135.846,2,2
135.846,2,2
135.85,2,1
135.85,1,1
135.85,1,1
135.854,2,1
135.854,1,0
135.858,0,1
135.858,1,1
135.862,2,2
135.862,1,1
135.862,0,0
135.866,1,1
135.866,2,3
135.87,2,2
135.87,2,1
135.875,1,1
135.875,1,0
135.875,0,1
135.879,1,1
135.879,1,1
135.883,2,3
135.883,3,2
135.887,1,1
135.887,2,2
135.887,2,2
135.891,2,2
135.891,1,1
135.895,2,2
135.895,2,1
135.899,1,1
135.899,1,1
135.899,2,2
135.903,2,2
135.903,1,2
135.907,2,2
135.907,3,2
135.911,1,1
135.911,0,1
135.912,1,1
135.916,0,1
135.916,1,2
135.92,1,1
135.92,0,1
135.924,1,2
135.924,2,2
135.924,2,2
135.928,2,2
135.928,2,1
135.932,1,1
135.932,1,2
135.932,2,2
135.936,2,2
135.936,1,1
135.94,2,2
135.94,2,2
135.944,2,1
135.944,1,2
135.944,2,2
135.948,2,2
135.948,2,2
135.952,1,1
135.952,0,0
135.956,0,1
135.957,1,1
135.957,1,1
135.961,1,1
135.961,2,2
135.965,1,2
135.965,3,3
135.969,2,1
135.969,1,1
135.969,1,1
135.973,1,1
135.973,0,1
135.977,1,1
135.977,1,2
135.981,2,2
135.981,2,2
135.981,2,2
135.985,2,1
135.985,1,1
135.989,2,1
135.989,1,1
135.993,1,1
135.993,1,1
135.993,0,1
135.997,2,1
135.997,1,1
136.002,1,1
136.002,2,2
136.006,2,3
136.006,3,2
136.006,1,0
136.01,0,0
136.01,1,3
136.014,4,3
136.014,2,1
136.018,1,0
136.018,0,0
136.018,1,2
136.022,2,2
136.022,2,2
136.026,2,2
136.026,2,1
136.03,0,0
136.03,0,2
136.03,2,2
136.034,2,1
136.034,0,0
136.038,0,2
136.038,2,2
136.038,2,2
136.042,2,2
136.042,2,2
136.047,2,2
136.047,2,2
136.051,1,1
136.051,1,1
136.051,1,1
136.055,0,1
136.055,1,1
136.059,1,2
136.059,3,2
136.063,2,2
136.063,1,2
136.063,2,2
136.067,2,1
136.067,1,1
136.071,1,2
136.071,1,1
136.075,0,0
136.075,1,2
136.075,3,2
136.079,1,0
136.079,1,1
136.083,1,1
136.083,1,1
136.088,1,2
136.088,2,2
136.088,2,2
136.092,2,2
136.092,1,1
136.096,1,2
136.096,3,3
136.1,2,1
136.1,1,0
136.1,0,1
136.104,1,2
136.104,2,1
136.108,1,0
136.108,1,1
136.112,1,1
136.112,0,1
136.112,1,1
136.116,1,1
136.116,1,2
136.12,1,1
136.12,1,1
136.12,2,2
136.124,3,3
136.124,2,2
136.128,1,1
136.129,0,0
136.133,1,0
136.133,1,1
136.133,1,2
136.137,2,2
136.137,2,2
136.141,2,1
136.141,2,2
136.145,2,2
136.145,2,1
136.145,1,1
136.149,1,1
136.149,1,1
136.153,1,0
136.153,1,1
136.157,2,2
136.157,1,1
136.157,2,2
136.161,2,1
136.161,1,1
136.165,2,3
136.165,4,5
136.169,3,1
136.169,0,0
136.17,0,0
136.174,0,0
136.174,1,2
136.178,2,1
136.178,1,1
136.182,1,1
136.182,1,1
136.182,2,2
136.186,2,1
136.186,1,2
136.19,2,3
136.19,2,2
136.194,2,1
136.194,1,1
136.194,1,0
136.198,1,1
136.198,1,2
136.202,2,2
136.202,2,2
136.206,2,2
136.206,2,2
136.206,2,2
136.21,1,1
136.21,0,0
136.215,0,1
136.215,2,2
136.219,2,1
136.219,1,1
136.219,2,2
136.223,2,2
136.223,2,2
136.227,2,2
136.227,2,2
136.227,1,1
136.231,1,1
136.231,1,1
136.235,1,0
136.235,1,1
136.239,1,1
136.239,2,1
136.239,1,0
136.243,0,1
136.243,3,4
136.247,5,4
136.247,3,2
136.251,0,0
136.251,0,0
136.251,0,0
136.255,1,0
136.255,0,1
136.26,2,2
136.26,2,1
136.264,1,2
136.264,2,2
136.264,3,3
136.268,1,0
136.268,1,1
136.272,2,3
136.272,3,4
136.276,2,0
136.276,0,0
136.276,0,1
136.28,1,1
136.28,2,2
136.284,2,2
136.284,1,1
136.288,1,2
136.288,2,2
136.288,2,2
136.292,2,2
136.292,1,1
136.296,1,1
136.296,1,1
136.3,1,1
136.301,1,2
136.301,2,2
136.305,2,3
136.305,2,2
136.309,1,1
136.309,1,1
136.309,1,1
136.313,1,1
136.313,0,0
136.317,1,1
136.317,1,1
136.321,0,1
136.321,1,2
136.321,3,3
136.325,3,2
136.325,2,1
136.329,1,0
136.329,1,1
136.333,1,1
136.333,1,1
136.333,1,1
136.337,1,1
136.337,0,1
136.342,1,1
136.342,2,2
136.346,2,1
136.346,1,2
136.346,2,2
136.35,2,2
136.35,1,1
136.354,1,1
136.354,1,1
136.358,1,1
136.358,2,3
136.358,3,2
136.362,2,1
136.362,1,1
136.366,2,2
136.366,3,2
136.37,1,1
136.37,1,1
136.37,1,1
136.374,1,1
136.374,0,0
136.378,1,1
136.378,1,1
136.382,1,1
136.382,1,2
136.382,3,2
136.387,2,2
136.387,1,2
136.391,2,2
136.391,2,1
136.395,0,0
136.395,0,1
136.395,2,2
136.399,3,5
136.399,4,2
136.403,0,0
136.403,0,1
136.403,2,2
136.407,3,1
136.407,1,1
136.411,1,1
136.411,0,1
136.415,1,1
136.415,1,1
136.415,1,2
136.419,2,2
136.419,2,2
136.423,2,2
136.423,2,2
136.428,2,2
136.428,2,2
136.428,1,1
136.432,0,0
136.432,0,1
136.436,1,1
136.436,1,2
136.44,2,1
136.44,1,2
136.44,3,3
136.444,2,1
136.444,1,2
136.448,3,2
136.448,1,1
136.452,1,0
136.452,0,1
136.452,1,1
136.456,1,1
136.456,1,1
136.46,1,1
136.46,2,2
136.464,3,2
136.464,2,2
136.464,1,1
136.468,1,1
136.468,2,2
136.473,2,2
136.473,2,1
136.477,1,1
136.477,1,1
136.477,3,3
136.481,2,1
136.481,1,1
136.485,0,0
136.485,0,0
136.489,2,5
136.489,5,3
136.489,1,0
136.493,0,0
136.493,0,0
136.497,1,1
136.497,1,1
136.501,2,2
136.501,1,2
136.501,2,2
136.505,2,2
136.505,2,2
136.509,2,2
136.509,1,1
136.509,1,1
136.514,2,2
136.514,2,2
136.518,1,1
136.518,1,1
136.522,2,2
136.522,2,3
136.522,2,1
136.526,0,1
136.526,1,2
136.53,2,2
136.53,2,2
136.534,1,1
136.534,1,2
136.534,2,2
136.538,2,2
136.538,1,1
136.542,1,1
136.542,1,2
136.546,2,2
136.546,2,2
136.546,2,2
136.55,1,1
136.55,1,1
136.554,1,1
136.554,1,1
136.559,0,1
136.559,1,1
136.559,2,2
136.563,1,1
136.563,1,1
136.567,2,2
136.567,2,3
136.571,3,2
136.571,0,0
136.571,0,1
136.575,3,4
136.575,3,1
136.579,0,0
136.579,0,0
136.583,2,3
136.583,2,3
136.583,3,3
136.587,1,1
136.587,1,1
136.591,1,0
136.591,1,1
136.595,1,1
136.595,2,2
136.595,2,2
136.599,2,2
136.6,1,1
136.604,1,1
136.604,1,2
136.604,2,2
136.608,2,2
136.608,2,2
136.612,2,1
136.612,1,1
136.616,1,1
136.616,1,1
136.616,1,0
136.62,1,2
136.62,2,1
136.624,0,1
136.624,1,1
136.628,2,2
136.628,3,2
136.628,1,1
136.632,1,1
136.632,1,1
136.636,1,0
136.636,1,1
136.641,1,1
136.641,1,1
136.641,2,2
136.645,3,3
136.645,1,1
136.649,1,1
136.649,1,1
136.653,1,0
136.653,1,1
136.653,2,3
136.657,2,1
136.657,1,0
136.661,0,0
136.661,0,0
136.665,3,5
136.665,6,5
136.665,2,0
136.669,0,0
136.669,0,0
136.673,0,0
136.673,0,1
136.677,3,4
136.677,4,4
136.677,3,3
136.681,3,1
136.681,0,0
136.686,0,1
136.686,1,1
136.69,2,2
136.69,2,1
136.69,1,1
136.694,1,1
136.694,1,1
136.698,0,0
136.698,0,0
136.702,0,2
136.702,2,3
136.702,3,3
136.706,3,3
136.706,3,1
136.71,1,1
136.71,1,0
136.71,1,1
136.714,1,1
136.714,0,0
136.718,1,2
136.718,3,4
136.722,5,3
136.722,2,1
136.722,0,1
136.727,1,1
136.727,2,1
136.731,0,0
136.731,1,3
136.735,3,2
136.735,0,-1
136.735,0,0
136.739,1,2
136.739,3,2
136.743,2,2
136.743,2,2
136.747,2,2
136.747,2,2
136.747,2,1
136.751,1,1
136.751,0,0
136.755,0,1
136.755,2,2
136.759,3,3
136.759,2,2
136.759,2,2
136.763,2,2
136.763,2,2
136.767,1,1
136.767,1,2
136.772,2,2
136.772,2,2
136.772,2,0
136.776,0,0
136.776,0,1
136.78,1,1
136.78,1,1
136.784,3,5
136.784,4,1
136.784,0,0
136.788,0,0
136.788,0,0
136.792,1,2
136.792,3,6
136.792,8,6
136.796,2,0
136.796,-1,0
136.8,0,0
136.8,2,2
136.804,1,2
136.804,3,3
136.804,3,2
136.808,1,0
136.808,1,1
136.812,1,0
136.812,0,0
136.817,1,1
136.817,0,1
136.817,1,2
136.821,3,4
136.821,3,3
136.825,3,2
136.825,1,1
136.829,1,0
136.829,0,1
136.829,1,1
136.833,2,2
136.833,2,3
136.837,3,3
136.837,2,0
136.841,0,0
136.841,2,2
136.841,2,2
136.845,1,1
136.845,1,1
136.849,1,1
136.849,0,1
136.853,1,1
136.853,2,2
136.854,1,0
136.858,0,0
136.858,0,0
136.862,1,2
136.862,3,3
136.866,2,2
136.866,2,2
136.866,2,3
136.87,3,2
136.87,0,0
136.874,0,1
136.874,1,1
136.874,2,2
136.878,2,1
136.878,1,1
136.882,1,1
136.882,1,2
136.886,3,3
136.886,2,0
136.886,0,1
136.89,2,3
136.89,3,2
136.894,2,3
136.894,2,0
136.898,0,0
136.899,0,0
136.899,0,2
136.903,3,3
136.903,3,3
136.907,4,3
136.907,0,0
136.911,0,0
136.911,0,2
136.911,1,1
136.915,0,1
136.915,1,1
136.919,1,2
136.919,2,2
136.923,2,1
136.923,1,2
136.923,3,4
136.927,4,3
136.927,1,0
136.931,0,0
136.931,0,0
136.935,0,0
136.935,0,1
136.935,3,4
136.939,3,2
136.939,2,2
136.944,2,3
136.944,2,1
136.948,1,0
136.948,0,2
136.948,3,3
136.952,3,3
136.952,3,1
136.956,0,-1
136.956,0,0
136.956,1,0
136.96,0,0
136.96,1,2
136.964,3,3
136.964,3,3
136.968,2,1
136.968,1,1
136.968,2,3
136.972,4,3
136.972,3,2
136.976,1,0
136.976,0,0
136.98,1,1
136.98,1,1
136.98,2,2
136.984,2,3
136.985,3,2
136.989,1,0
136.989,0,0
136.993,1,1
136.993,1,2
136.993,2,2
136.997,2,2
136.997,1,2
137.001,2,2
137.001,2,2
137.005,2,1
137.005,1,1
137.005,1,0
137.009,0,0
137.009,0,0
137.013,2,3
137.013,2,3
137.017,3,3
137.017,1,0
137.017,1,1
137.021,2,1
137.021,1,2
137.025,2,3
137.025,1,1
137.03,1,1
137.03,0,1
137.03,2,2
137.034,2,1
137.034,1,1
137.038,1,3
137.038,3,3
137.042,1,1
137.042,0,0
137.042,0,1
137.046,1,1
137.046,0,0
137.05,1,2
137.05,2,2
137.05,2,2
137.054,3,3
137.054,2,1
137.058,0,0
137.058,0,1
137.062,1,1
137.062,1,1
137.062,2,2
137.066,3,3
137.066,2,2
137.071,2,1
137.071,1,0
137.075,0,0
137.075,1,1
137.075,1,1
137.079,1,1
137.079,1,2
137.083,2,2
137.083,1,2
137.087,2,2
137.087,2,1
137.087,1,1
137.091,2,2
137.091,2,2
137.095,2,2
137.095,1,1
137.099,1,1
137.099,1,1
137.099,1,2
137.103,3,3
137.103,2,1
137.107,1,2
137.107,2,1
137.111,1,1
137.112,3,2
137.112,2,2
137.116,1,0
137.116,0,1
137.12,1,1
137.12,1,1
137.124,2,3
137.124,3,2
137.124,1,1
137.128,1,1
137.128,1,1
137.132,1,1
137.132,0,1
137.136,1,1
137.136,1,1
137.136,1,1
137.14,1,1
137.14,2,2
137.144,2,1
137.144,1,2
137.144,2,2
137.148,2,2
137.148,2,2
137.152,1,1
137.152,1,1
137.157,1,1
137.157,1,0
137.157,1,2
137.161,3,3
137.161,4,3
137.165,0,1
137.165,2,2
137.169,2,2
137.169,2,1
137.169,1,0
137.173,0,0
137.173,0,1
137.177,1,0
137.177,1,1
137.181,1,1
137.181,2,2
137.181,2,2
137.185,3,3
137.185,1,1
137.189,1,1
137.189,0,1
137.193,2,3
137.193,3,1
137.193,0,0
137.197,1,1
137.198,1,1
137.202,2,2
137.202,2,2
137.206,3,2
137.206,2,1
137.206,0,0
137.21,1,2
137.21,1,0
137.214,1,1
137.214,1,1
137.218,1,1
137.218,1,2
137.218,2,2
137.222,2,2
137.222,2,2
137.226,3,2
137.226,2,1
137.226,1,1
137.23,2,3
137.23,2,1
137.234,0,1
137.234,1,0
137.239,0,0
137.239,2,2
137.239,2,2
137.243,2,1
137.243,1,1
137.247,1,1
137.247,1,2
137.251,2,2
137.251,2,2
137.251,3,2
137.255,2,1
137.255,1,1
137.259,1,2
137.259,3,2
137.263,1,1
137.263,0,1
137.263,2,2
137.267,2,2
137.267,3,2
137.271,1,1
137.271,1,1
137.275,1,1
137.275,0,0
137.275,1,2
137.279,2,1
137.279,1,1
137.284,1,0
137.284,0,2
137.288,3,5
137.288,5,3
137.288,2,1
137.292,0,0
137.292,0,1
137.296,1,1
137.296,2,2
137.3,3,2
137.3,2,1
137.3,0,0
137.304,1,1
137.304,2,3
137.308,2,2
137.308,2,1
137.312,1,0
137.312,0,0
137.312,1,1
137.316,1,1
137.316,2,2
137.32,2,2
137.32,2,1
137.32,1,1
137.324,1,1
137.324,2,3
137.329,4,3
137.329,2,1
137.333,0,0
137.333,0,1
137.333,1,1
137.337,1,0
137.337,1,1
137.341,2,2
137.341,2,1
137.345,1,2
137.345,2,2
137.345,2,2
137.349,2,2
137.349,2,1
137.353,1,1
137.353,1,1
137.357,1,1
137.357,2,2
137.357,3,3
137.361,1,1
137.361,1,1
137.365,1,1
137.365,1,1
137.37,1,0
137.37,1,1
137.37,3,4
137.374,4,1
137.374,0,0
137.378,0,0
137.378,0,0
137.382,1,2
137.382,2,2
137.382,2,2
137.386,3,3
137.386,2,1
137.39,1,0
137.39,0,1
137.394,2,2
137.394,1,1
137.394,1,1
137.398,1,1
137.398,2,2
137.402,2,2
137.402,2,2
137.406,3,2
137.406,1,1
137.406,1,2
137.41,2,2
137.41,1,1
137.415,0,0
137.415,0,1
137.415,1,1
137.419,1,1
137.419,2,2
137.423,2,2
137.423,1,1
137.427,2,2
137.427,2,2
137.427,2,2
137.431,3,2
137.431,1,1
137.435,1,1
137.435,0,0
137.439,1,2
137.439,3,2
137.439,1,1
137.443,1,1
137.443,1,1
137.447,0,1
137.447,2,2
137.452,1,1
137.452,2,3
137.452,2,1
137.456,0,1
137.456,2,4
137.46,4,2
137.46,0,0
137.464,0,0
137.464,2,2
137.464,1,1
137.468,1,1
137.468,1,2
137.472,1,1
137.472,1,0
137.476,1,1
137.476,1,1
137.476,1,1
137.48,1,1
137.48,2,2
137.484,2,2
137.484,2,2
137.488,3,2
137.488,1,1
137.488,0,0
137.492,1,1
137.492,2,1
137.496,1,0
137.497,0,1
137.501,2,2
137.501,2,1
137.501,1,2
137.505,3,4
137.505,3,2
137.509,0,0
137.509,0,1
137.509,1,1
137.513,1,1
137.513,0,1
137.517,1,1
137.517,1,1
137.521,1,1
137.521,2,2
137.521,2,2
137.525,3,3
137.525,1,1
137.529,0,1
137.529,1,1
137.533,1,2
137.533,2,2
137.533,0,0
137.537,0,2
137.537,2,2
137.542,3,5
137.542,4,2
137.546,0,0
137.546,0,1
137.546,1,1
137.55,2,2
137.55,2,1
137.554,1,2
137.554,4,3
137.558,2,1
137.558,0,0
137.558,1,1
137.562,1,2
137.562,2,2
137.566,2,2
137.566,3,2
137.57,1,1
137.57,0,0
137.57,1,1
137.574,1,1
137.574,2,1
137.578,1,1
137.578,1,1
137.583,1,2
137.583,2,2
137.583,2,3
137.587,3,2
137.587,1,1
137.591,0,0
137.591,1,1
137.595,2,2
137.595,1,1
137.595,0,0
137.599,1,1
137.599,1,2
137.603,4,4
137.603,3,2
137.603,2,1
137.607,1,1
137.607,1,2
137.611,2,1
137.611,0,0
137.615,0,0
137.615,0,1
137.615,1,1
137.619,2,2
137.619,2,2
137.623,2,2
137.623,1,0
137.628,0,1
137.628,3,6
137.628,6,3
137.632,1,0
137.632,0,0
137.636,0,0
137.636,1,1
137.64,1,1
137.64,1,1
137.64,1,1
137.644,1,1
137.644,1,2
137.648,3,3
137.648,3,1
137.652,1,1
137.652,1,1
137.652,0,1
137.656,1,2
137.656,2,3
137.66,2,1
137.66,1,0
137.664,0,2
137.664,2,2
137.664,2,1
137.669,1,1
137.669,1,0
137.673,0,1
137.673,2,2
137.677,1,1
137.677,1,1
137.677,1,2
137.681,2,2
137.681,2,2
137.685,2,2
137.685,1,2
137.685,3,2
137.689,3,2
137.689,1,1
137.693,0,0
137.693,0,1
137.697,1,1
137.697,0,1
137.697,2,2
137.701,1,1
137.701,2,3
137.705,4,3
137.705,2,1
137.71,1,0
137.71,0,0
137.71,1,1
137.714,2,1
137.714,1,1
137.718,2,4
137.718,3,1
137.722,0,0
137.722,1,1
137.722,1,1
137.726,1,1
137.726,1,1
137.73,0,1
137.73,2,2
137.734,2,2
137.734,1,1
137.734,1,1
137.738,1,2
137.738,3,3
137.742,2,1
137.742,1,1
137.746,1,1
137.746,1,1
137.746,1,1
137.75,0,1
137.75,1,2
137.755,3,2
137.755,1,0
137.759,1,0
137.759,0,1
137.759,2,3
137.763,3,3
137.763,1,1
137.767,1,1
137.767,1,1
137.771,1,1
137.771,1,0
137.771,1,1
137.775,1,1
137.775,2,2
137.779,2,2
137.779,1,1
137.779,1,2
137.783,2,3
137.783,2,2
137.787,2,1
137.787,1,1
137.791,2,2
137.791,2,2
137.791,2,2
137.795,1,1
137.796,1,0
137.8,1,1
137.8,2,4
137.804,4,2
137.804,0,0
137.804,1,0
137.808,0,1
137.808,1,1
137.812,1,1
137.812,1,0
137.816,1,1
137.816,2,3
137.816,2,2
137.82,1,1
137.82,2,2
137.824,3,2
137.824,2,2
137.828,2,1
137.828,0,0
137.828,0,1
137.832,2,1
137.832,1,0
137.836,1,1
137.836,1,1
137.841,1,1
137.841,1,2
137.841,2,2
137.845,2,2
137.845,3,2
137.849,2,1
137.849,1,1
137.853,0,1
137.853,1,1
137.853,1,1
137.857,1,1
137.857,1,1
137.861,2,2
137.861,2,2
137.865,2,2
137.865,2,3
137.865,2,1
137.869,0,0
137.869,1,1
137.873,2,2
137.873,2,1
137.873,1,0
137.877,1,1
137.877,1,2
137.881,2,2
137.882,2,2
137.886,2,2
137.886,2,2
137.886,1,1
137.89,1,3
137.89,3,2
137.894,1,0
137.894,0,0
137.898,2,3
137.898,2,1
137.898,0,1
137.902,1,2
137.902,2,2
137.906,2,2
137.906,2,2
137.91,1,1
137.91,1,0
137.91,1,1
137.914,1,1
137.914,0,1
137.918,2,2
137.918,2,2
137.922,2,2
137.922,2,2
137.922,2,2
137.927,2,1
137.927,1,0
137.931,0,1
137.931,2,2
137.935,2,1
137.935,0,0
137.935,1,1
137.939,1,1
137.939,1,2
137.943,2,2
137.943,2,3
137.947,2,1
137.947,1,0
137.947,1,1
137.951,1,1
137.951,2,2
137.955,2,2
137.955,2,2
137.959,2,2
137.959,1,1
137.959,1,1
137.963,1,2
137.963,2,2
137.968,2,2
137.968,2,1
137.968,1,1
137.972,2,2
137.972,2,1
137.976,1,1
137.976,1,2
137.98,2,2
137.98,1,1
137.98,2,1
137.984,1,1
137.984,3,5
137.988,5,1
137.988,0,0
137.992,0,0
137.992,1,1
137.992,1,1
137.996,1,1
137.996,1,0
138,1,1
138,1,2
138.004,2,2
138.004,2,2
138.004,2,2
138.008,2,2
138.008,2,1
138.013,1,1
138.013,1,1
138.017,0,0
138.017,1,2
138.017,3,4
138.021,2,1
138.021,0,1
138.025,2,2
138.025,1,2
138.029,2,3
138.029,2,1
138.029,1,1
138.033,0,0
138.033,0,1
138.037,1,1
138.037,1,1
138.041,1,2
138.041,3,3
138.041,3,1
138.045,1,1
138.045,1,1
138.05,1,1
138.05,2,1
138.054,1,1
138.054,1,1
138.054,0,0
138.058,0,0
138.058,1,1
138.062,2,2
138.062,2,2
138.062,2,2
138.066,2,3
138.066,2,2
138.07,2,1
138.07,1,1
138.074,1,0
138.074,0,0
138.074,1,2
138.078,2,1
138.078,1,1
138.082,1,2
138.082,3,3
138.086,2,1
138.086,1,1
138.086,0,0
138.09,0,2
138.09,3,4
138.094,4,1
138.095,0,0
138.099,0,1
138.099,1,2
138.099,2,2
138.103,2,2
138.103,2,2
138.107,2,2
138.107,1,1
138.111,1,1
138.111,0,1
138.111,1,1
138.115,1,2
138.115,2,2
138.119,2,2
138.119,2,2
138.123,1,1
138.123,1,2
138.123,2,2
138.127,3,2
138.127,1,1
138.131,1,1
138.131,1,1
138.135,0,0
138.135,1,1
138.135,1,1
138.14,1,1
138.14,1,2
138.144,2,2
138.144,2,1
138.148,2,2
138.148,2,2
138.148,1,1
138.152,2,3
138.152,3,3
138.156,1,1
138.156,0,0
138.156,0,0
138.16,1,1
138.16,1,1
138.164,1,2
138.164,1,1
138.168,2,1
138.168,2,5
138.168,5,2
138.172,0,0
138.172,0,0
138.176,0,1
138.176,1,2
138.181,2,2
138.181,2,2
138.181,2,2
138.185,2,1
138.185,1,1
138.189,1,1
138.189,1,0
138.193,1,1
138.193,1,2
138.193,2,2
138.197,3,2
138.197,1,1
138.201,1,0
138.201,1,1
138.205,1,2
138.205,2,2
138.205,2,1
138.209,1,1
138.209,2,2
138.213,2,3
138.213,2,2
138.217,1,1
138.217,0,0
138.217,0,0
138.221,1,1
138.221,2,3
138.226,2,2
138.226,2,2
138.23,2,2
138.23,2,1
138.23,2,2
138.234,1,0
138.234,0,1
138.238,2,2
138.238,2,1
138.242,1,1
138.242,1,2
138.242,3,2
138.246,1,1
138.246,0,2
138.25,1,1
138.25,1,1
138.25,2,1
138.254,0,0
138.254,0,0
138.258,0,1
138.258,0,1
138.262,3,6
138.262,6,3
138.262,1,1
138.266,1,1
138.266,0,0
138.271,0,2
138.271,1,1
138.275,1,1
138.275,1,0
138.275,1,1
138.279,1,1
138.279,1,1
138.283,1,1
138.283,1,2
138.287,2,2
138.287,2,2
138.287,2,2
138.291,2,2
138.291,2,1
138.295,1,0
138.295,1,1
138.299,2,2
138.299,2,2
138.299,2,1
138.303,1,1
138.303,1,1
138.308,1,1
138.308,1,0
138.312,1,1
138.312,1,1
138.312,1,2
138.316,1,2
138.316,2,2
138.32,2,2
138.32,2,2
138.324,2,2
138.324,1,1
138.324,1,1
138.328,0,2
138.328,1,1
138.332,1,1
138.332,2,2
138.336,2,2
138.336,1,1
138.336,1,1
138.34,1,1
138.34,2,2
138.344,2,2
138.344,2,2
138.344,1,0
138.348,0,1
138.348,2,6
138.352,5,3
138.352,0,0
138.357,0,0
138.357,0,1
138.357,2,1
138.361,1,0
138.361,1,1
138.365,1,2
138.365,3,3
138.369,1,1
138.369,0,1
138.369,1,1
138.373,1,2
138.373,2,2
138.377,2,2
138.377,1,2
138.381,2,2
138.381,1,2
138.381,3,2
138.385,1,1
138.385,1,1
138.389,1,1
138.389,1,1
138.393,0,1
138.393,1,1
138.393,1,1
138.398,1,1
138.398,0,1
138.402,2,2
138.402,2,2
138.406,2,2
138.406,2,1
138.406,1,1
138.41,1,1
138.41,2,3
138.414,2,1
138.414,1,1
138.418,0,1
138.418,1,1
138.418,2,2
138.422,2,2
138.422,2,2
138.426,1,2
138.426,2,2
138.43,2,2
138.43,1,1
138.43,1,0
138.434,1,0
138.434,0,1
138.439,2,5
138.439,4,2
138.439,1,0
138.443,0,0
138.443,1,1
138.447,2,1
138.447,1,0
138.451,1,1
138.451,1,2
138.451,3,2
138.455,1,0
138.455,1,1
138.459,0,1
138.459,1,1
138.463,2,2
138.463,3,3
138.463,2,2
138.467,2,2
138.467,1,0
138.471,0,0
138.471,1,1
138.475,1,1
138.475,1,1
138.475,2,2
138.479,2,2
138.479,2,2
138.484,2,2
138.484,2,1
138.488,1,0
138.488,1,1
138.488,1,1
138.492,2,2
138.492,2,2
138.496,2,2
138.496,2,1
138.5,1,2
138.5,2,2
138.5,2,2
138.504,2,1
138.504,1,1
138.508,1,1
138.508,1,0
138.512,1,1
138.512,2,2
138.512,2,2
138.516,2,2
138.516,2,1
138.52,1,1
138.52,1,1
138.525,1,1
138.525,1,2
138.525,4,4
138.529,4,2
138.529,0,0
138.533,0,0
138.533,1,2
138.533,2,3
138.537,2,1
138.537,1,1
138.541,2,2
138.541,1,2
138.545,3,2
138.545,1,0
138.545,1,1
138.549,1,1
138.549,2,2
138.553,2,2
138.553,2,2
138.557,1,1
138.557,2,2
138.557,2,2
138.561,1,1
138.561,1,2
138.566,2,2
138.566,2,2
138.57,1,0
138.57,0,1
138.57,3,4
138.574,3,2
138.574,1,0
138.578,0,0
138.578,1,2
138.582,2,2
138.582,2,1
138.582,1,1
138.586,1,1
138.586,1,1
138.59,0,1
138.59,2,2
138.594,2,2
138.594,1,1
138.594,1,1
138.598,1,2
138.598,2,3
138.602,2,2
138.602,1,1
138.606,1,2
138.607,3,3
138.607,2,2
138.611,1,0
138.611,0,0
138.615,0,0
138.615,0,0
138.619,2,4
138.619,5,4
138.619,2,1
138.623,0,0
138.623,1,1
138.627,2,2
138.627,2,2
138.627,2,1
138.631,1,1
138.631,1,0
138.635,1,1
138.635,1,2
138.639,2,2
138.639,2,2
138.639,2,2
138.643,2,1
138.643,1,2
138.647,2,2
138.647,1,1
138.651,0,0
138.652,0,1
138.652,1,1
138.656,2,1
138.656,1,1
138.66,2,2
138.66,2,2
138.664,2,2
138.664,2,2
138.664,2,2
138.668,2,2
138.668,2,1
138.672,0,0
138.672,0,1
138.676,0,0
138.676,1,1
138.676,2,2
138.68,2,2
138.68,2,2
138.684,2,2
138.684,2,2
138.688,2,2
138.688,2,1
138.688,1,1
138.692,1,1
138.692,1,0
138.697,0,0
138.697,0,1
138.701,2,2
138.701,2,2
138.701,2,2
138.705,2,2
138.705,3,2
138.709,1,0
138.709,0,0
138.709,0,2
138.713,3,6
138.713,4,2
138.717,0,0
138.717,0,1
138.721,2,2
138.721,2,2
138.721,1,1
138.725,1,1
138.725,1,1
138.729,0,1
138.729,2,2
138.733,2,2
138.733,1,2
138.733,2,2
138.738,2,2
138.738,1,1
138.742,1,1
138.742,1,1
138.746,1,1
138.746,1,0
138.746,1,1
138.75,1,2
138.75,2,3
138.754,2,1
138.754,0,1
138.758,1,2
138.758,2,2
138.758,2,2
138.762,1,2
138.762,2,2
138.766,2,2
138.766,1,1
138.77,1,0
138.77,1,1
138.77,1,2
138.774,2,2
138.774,2,2
138.778,1,1
138.778,1,2
138.783,2,2
138.783,1,1
138.783,2,2
138.787,1,1
138.787,1,2
138.791,3,4
138.791,3,2
138.795,0,0
138.795,0,1
138.795,0,1
138.799,1,1
138.799,1,1
138.803,1,1
138.803,1,2
138.803,3,6
138.807,5,2
138.807,0,0
138.811,0,0
138.811,0,2
138.815,2,1
138.815,1,1
138.815,1,2
138.819,2,1
138.819,1,1
138.824,1,1
138.824,2,3
138.828,3,2
138.828,2,1
138.828,1,2
138.832,2,3
138.832,2,2
138.836,1,1
138.836,0,0
138.84,0,0
138.84,0,1
138.84,2,3
138.844,2,2
138.844,1,2
138.848,2,3
138.848,2,1
138.852,0,0
138.852,0,1
138.852,2,2
138.856,1,1
138.856,1,1
138.86,1,2
138.86,2,2
138.865,2,2
138.865,3,2
138.865,2,2
138.869,1,0
138.869,0,0
138.873,1,1
138.873,0,1
138.877,0,0
138.877,0,2
138.877,2,3
138.881,4,4
138.881,4,2
138.885,0,0
138.885,0,1
138.885,1,1
138.889,0,1
138.889,2,2
138.893,2,2
138.893,2,1
138.897,1,1
138.897,1,1
138.897,1,1
138.901,2,2
138.901,3,3
138.905,2,2
138.905,2,2
138.91,2,1
138.91,0,0
138.91,1,0
138.914,0,0
138.914,0,1
138.918,1,2
138.918,2,2
138.922,2,2
138.922,3,2
138.922,2,2
138.926,1,1
138.926,1,1
138.93,1,2
138.93,2,2
138.934,2,1
138.934,1,1
138.934,2,2
138.938,2,1
138.938,1,2
138.942,2,3
138.942,2,1
138.946,1,2
138.946,2,2
138.946,1,0
138.951,0,0
138.951,1,0
138.955,1,1
138.955,1,1
138.959,2,2
138.959,2,1
138.959,1,1
138.963,1,3
138.963,3,3
138.967,2,2
138.967,1,0
138.971,0,0
138.971,1,2
138.971,3,3
138.975,2,1
138.975,0,1
138.979,1,0
138.979,1,1
138.979,2,2
138.983,2,2
138.983,1,2
138.987,2,2
138.987,2,2
138.991,1,1
138.991,1,2
138.991,1,1
138.996,1,2
138.996,2,2
139,2,2
139,2,2
139.004,2,1
139.004,1,1
139.004,2,2
139.008,2,2
139.008,2,2
139.012,2,1
139.012,1,1
139.016,0,1
139.016,1,1
139.016,1,1
139.02,1,2
139.02,2,2
139.024,2,2
139.024,2,2
139.028,3,2
139.028,2,2
139.028,1,1
139.032,0,0
139.032,0,1
139.037,1,1
139.037,1,1
139.041,1,1
139.041,2,2
139.041,2,2
139.045,1,1
139.045,1,1
139.049,2,2
139.049,2,2
139.053,1,1
139.053,1,1
139.053,2,5
139.057,4,2
139.057,1,0
139.061,0,0
139.061,0,1
139.065,1,1
139.065,2,2
139.065,2,2
139.069,2,2
139.069,2,2
139.073,1,1
139.073,1,1
139.078,1,2
139.078,2,2
139.078,1,0
139.082,0,1
139.082,2,3
139.086,4,3
139.086,2,1
139.086,1,2
139.09,1,1
139.09,1,0
139.094,1,1
139.094,1,2
139.098,2,2
139.098,2,1
139.098,1,1
139.102,1,1
139.102,2,2
139.106,3,3
139.106,1,1
139.11,0,1
139.11,1,1
139.11,1,1
139.114,1,2
139.114,2,2
139.118,1,1
139.118,1,0
139.123,1,1
139.123,1,2
139.123,3,4
139.127,3,2
139.127,1,1
139.131,0,0
139.131,0,1
139.135,0,0
139.135,0,1
139.135,2,2
139.139,2,2
139.139,1,1
139.143,1,1
139.143,1,1
139.147,1,1
139.147,2,4
139.147,4,2
139.151,1,0
139.151,0,0
139.155,1,1
139.155,1,1
139.159,0,1
139.159,1,1
139.159,1,1
139.163,2,3
139.163,4,2
139.168,1,1
139.168,0,0
139.172,1,1
139.172,1,1
139.172,2,2
139.176,1,2
139.176,2,2
139.18,1,1
139.18,1,2
139.18,3,3
139.184,2,1
139.184,1,1
139.188,1,0
139.188,0,1
139.192,2,2
139.192,2,1
139.192,1,1
139.196,2,2
139.196,2,1
139.2,1,1
139.2,1,1
139.204,2,2
139.204,3,3
139.204,1,1
139.209,1,1
139.209,1,1
139.213,0,1
139.213,1,2
139.217,2,2
139.217,2,1
139.217,1,1
139.221,2,2
139.221,2,2
139.225,2,2
139.225,2,2
139.229,1,1
139.229,1,1
139.229,1,1
139.233,1,2
139.233,2,1
139.237,1,1
139.237,1,1
139.241,2,2
139.241,2,2
139.241,2,1
139.245,1,1
139.245,2,3
139.25,3,3
139.25,2,1
139.254,0,0
139.254,0,0
139.254,1,1
139.258,1,1
139.258,1,2
139.262,2,2
139.262,1,1
139.266,2,2
139.266,3,2
139.266,1,1
139.27,1,2
139.27,2,2
139.274,2,1
139.274,0,0
139.274,1,2
139.278,3,3
139.278,2,2
139.282,2,2
139.282,1,1
139.286,1,1
139.286,0,0
139.286,1,2
139.29,2,2
139.29,2,1
139.295,1,1
139.295,1,2
139.299,2,2
139.299,2,1
139.299,1,1
139.303,1,2
139.303,2,2
139.307,2,2
139.307,2,2
139.311,2,2
139.311,2,2
139.311,1,1
139.315,0,0
139.315,0,1
139.319,1,1
139.319,1,1
139.323,1,1
139.323,1,1
139.323,2,3
139.327,3,3
139.327,2,1
139.331,1,0
139.331,0,1
139.336,1,0
139.336,0,0
139.336,1,2
139.34,2,3
139.34,3,5
139.344,4,2
139.344,0,0
139.348,0,2
139.348,2,2
139.348,1,0
139.352,0,1
139.352,1,2
139.356,2,2
139.356,2,1
139.36,1,0
139.36,1,2
139.36,2,3
139.364,2,2
139.364,1,1
139.368,2,2
139.368,1,2
139.368,2,2
139.372,1,2
139.372,2,2
139.377,2,2
139.377,1,1
139.381,1,1
139.381,1,1
139.381,1,1
139.385,2,2
139.385,3,3
139.389,2,1
139.389,1,1
139.393,1,1
139.393,0,0
139.393,1,1
139.397,1,1
139.397,2,2
139.401,2,2
139.401,2,2
139.405,3,2
139.405,2,2
139.405,2,1
139.409,1,0
139.409,1,1
139.413,1,0
139.413,0,0
139.417,0,1
139.417,1,1
139.417,2,2
139.422,2,3
139.422,2,2
139.426,2,3
139.426,3,2
139.43,1,1
139.43,0,0
139.43,0,0
139.434,0,1
139.434,3,5
139.438,4,2
139.438,0,0
139.442,0,1
139.442,2,2
139.442,2,2
139.446,2,2
139.446,1,0
139.45,0,1
139.45,2,2
139.454,2,2
139.454,1,1
139.454,1,1
139.458,2,2
139.458,2,2
139.463,1,1
139.463,2,2
139.463,2,2
139.467,2,2
139.467,2,1
139.471,1,1
139.471,1,1
139.475,1,1
139.475,1,1
139.475,1,1
139.479,1,1
139.479,1,3
139.483,4,4
139.483,3,1
139.487,1,0
139.487,1,0
139.487,0,0
139.491,1,2
139.491,2,2
139.495,1,1
139.495,2,2
139.499,2,2
139.499,2,2
139.499,1,1
139.503,2,2
139.503,2,2
139.508,2,2
139.508,2,1
139.512,1,1
139.512,1,1
139.512,0,1
139.516,1,1
139.516,1,2
139.52,2,2
139.52,2,1
139.524,1,2
139.524,3,3
139.524,2,2
139.528,1,0
139.528,0,0
139.532,2,2
139.532,2,2
139.536,1,1
139.536,1,1
139.536,1,0
139.54,0,1
139.54,3,5
139.544,5,2
139.544,0,1
139.549,1,1
139.549,3,3
139.549,3,2
139.553,1,1
139.553,1,1
139.557,1,0
139.557,0,0
139.557,1,1
139.561,2,2
139.561,2,2
139.565,2,2
139.565,2,2
139.569,1,1
139.569,0,1
139.569,1,1
139.573,1,1
139.573,1,2
139.577,2,1
139.577,2,2
139.581,2,2
139.581,1,1
139.581,1,1
139.585,1,2
139.585,2,2
139.589,3,2
139.589,2,2
139.594,1,1
139.594,0,0
139.594,0,1
139.598,1,2
139.598,2,2
139.602,2,2
139.602,2,1
139.606,1,1
139.606,2,2
139.606,2,1
139.61,0,0
139.61,1,1
139.614,1,1
139.614,1,1
139.618,1,1
139.618,0,1
139.618,0,0
139.622,1,2
139.622,4,5
139.626,3,3
139.626,1,1
139.63,1,1
139.63,1,0
139.63,0,0
139.634,1,1
139.635,1,1
139.639,1,1
139.639,1,0
139.643,1,1
139.643,2,4
139.643,4,4
139.647,3,2
139.647,2,1
139.651,0,0
139.651,0,0
139.651,0,1
139.655,2,3
139.655,2,2
139.659,1,1
139.659,1,0
139.663,0,1
139.663,2,3
139.663,3,4
139.667,4,2
139.667,1,1
139.671,1,0
139.671,0,0
139.675,2,2
139.676,2,2
139.676,1,0
139.68,0,0
139.68,2,1
139.684,1,2
139.684,2,2
139.688,1,1
139.688,1,1
139.688,1,1
139.692,1,1
139.692,0,1
139.696,0,0
139.696,0,2
139.7,2,3
139.7,3,2
139.7,2,2
139.704,3,3
139.704,3,3
139.708,1,0
139.708,0,0
139.712,0,0
139.712,0,0
139.712,1,1
139.716,2,2
139.716,2,2
139.721,2,2
139.721,1,1
139.725,1,1
139.725,1,2
139.725,3,4
139.729,4,3
139.729,1,0
139.733,0,0
139.733,0,0
139.737,0,1
139.737,1,1
139.737,1,1
139.741,2,2
139.741,2,3
139.745,3,3
139.745,2,1
139.745,0,0
139.749,0,1
139.749,1,2
139.753,3,3
139.753,1,0
139.757,1,1
139.757,1,1
139.757,1,1
139.761,1,2
139.761,2,2
139.766,2,2
139.766,2,2
139.77,1,0
139.77,0,0
139.77,2,5
139.774,4,2
139.774,0,0
139.778,0,2
139.778,2,2
139.782,3,2
139.782,1,1
139.782,0,0
139.786,0,0
139.786,2,2
139.79,2,2
139.79,1,0
139.794,0,1
139.794,0,0
139.794,1,1
139.798,1,2
139.798,2,2
139.802,2,2
139.802,3,3
139.807,2,1
139.807,1,1
139.807,0,0
139.811,2,1
139.811,1,0
139.815,0,0
139.815,1,2
139.819,4,4
139.819,4,2
139.819,1,1
139.823,1,1
139.823,1,2
139.827,1,1
139.827,1,1
139.827,1,0
139.831,0,1
139.831,2,2
139.835,2,2
139.835,2,2
139.839,1,1
139.839,1,1
139.839,1,1
139.843,1,1
139.843,2,2
139.847,2,2
139.847,2,1
139.852,1,1
139.852,2,2
139.852,2,2
139.856,1,2
139.856,3,2
139.86,1,1
139.86,0,1
139.864,1,1
139.864,2,2
139.864,3,2
139.868,2,2
139.868,1,1
139.872,0,0
139.872,0,0
139.876,1,2
139.876,2,2
139.876,1,1
139.88,1,1
139.88,0,1
139.884,2,3
139.884,4,4
139.888,3,2
139.888,0,0
139.888,0,0
139.893,1,2
139.893,3,4
139.897,3,1
139.897,0,0
139.901,0,1
139.901,2,3
139.901,3,1
139.905,0,0
139.905,1,3
139.909,5,5
139.909,3,1
139.909,0,0
139.913,0,0
139.913,0,1
139.917,1,2
139.917,1,1
139.921,1,1
139.921,1,2
139.921,3,5
139.925,3,1
139.925,0,0
139.929,0,1
139.929,3,4
139.933,2,0
139.934,0,0
139.934,1,1
139.938,1,0
139.938,1,4
139.942,5,6
139.942,5,2
139.946,-2,-5
139.946,-6,-5
139.946,-2,3
139.95,6,5
139.95,6,7
139.954,7,5
139.954,3,2
139.958,1,1
139.958,3,5
139.958,4,2
139.962,-5,-16
139.962,-15,-2
139.966,8,15
139.966,20,26
139.97,21,6
139.97,-4,-10
139.975,-12,-7
139.975,-2,0
139.975,-7,-24
139.979,-30,-17
139.979,3,20
139.983,22,20
139.983,21,21
139.987,18,9
139.987,-11,-17
139.991,-10,-4
139.991,-2,2
139.991,9,14
139.995,14,6
139.995,-3,-12
139.999,-15,-9
139.999,-2,4
140.003,8,7
140.003,6,5
140.003,7,7
140.007,7,5
140.007,0,-1
140.011,-3,-3
140.011,0,3
140.015,5,5
140.015,1,-4
140.015,-9,-8
140.019,-2,2
140.019,6,7
140.024,4,1
140.024,1,2
140.028,2,3
140.028,4,8
140.028,12,8
140.032,2,-1
140.032,-2,0
140.036,1,2
140.036,1,0
140.04,0,0
140.04,1,1
140.04,0,-1
140.044,-5,-9
140.044,-9,-6
140.048,0,10
140.048,17,18
140.052,13,4
140.052,-1,-4
140.052,-2,0
140.056,1,0
140.056,0,-1
140.06,0,0
140.06,0,3
140.065,8,9
140.065,11,10
140.065,7,5
140.069,3,1
140.069,-1,-3
140.073,-4,-5
140.073,-5,-4
140.077,-2,0
140.077,1,1
140.077,2,3
140.081,3,4
140.081,5,5
140.085,5,5
140.085,3,2
140.089,0,0
140.089,0,1
140.089,1,-2
140.093,-5,-5
140.093,-3,0
140.097,4,6
140.097,6,6
140.101,7,6
140.101,4,3
140.101,2,2
140.105,0,0
140.105,0,0
140.11,-1,0
140.11,0,0
140.114,2,2
140.114,2,2
140.114,2,2
140.118,3,3
140.118,4,4
140.122,3,3
140.122,3,3
140.126,2,0
140.126,0,-2
140.126,-3,-2
140.13,-1,0
140.13,0,0
140.134,2,5
140.134,7,10
140.138,11,9
140.138,4,0
140.138,-1,-2
140.142,-4,-3
140.142,-2,0
140.146,1,2
140.147,2,2
140.151,1,0
140.151,0,0
140.151,0,3
140.155,5,5
140.155,3,1
140.159,0,0
140.159,0,2
140.159,3,6
140.163,7,6
140.163,2,0
140.167,0,0
140.167,1,1
140.171,0,0
140.171,0,0
140.171,0,0
140.175,2,2
140.175,2,2
140.179,2,2
140.179,3,3
140.183,3,3
140.183,2,1
140.183,0,2
140.187,1,1
140.187,1,0
140.192,1,0
140.192,1,1
140.196,1,2
140.196,2,2
140.196,2,2
140.2,2,2
140.2,2,1
140.204,2,1
140.204,0,0
140.208,0,1
140.208,4,5
140.208,4,2
140.212,1,0
140.212,0,1
140.216,1,1
140.216,0,1
140.22,3,3
140.22,2,1
140.22,1,0
140.224,0,0
140.224,0,0
140.228,1,1
140.228,2,3
140.232,4,4
140.233,3,3
140.233,2,1
140.237,1,1
140.237,3,5
140.241,3,0
140.241,-2,-2
140.245,-1,-1
140.245,1,2
140.245,3,5
140.249,4,4
140.249,3,2
140.253,2,1
140.253,1,1
140.253,2,2
140.257,0,0
140.257,0,0
140.261,0,0
140.261,0,1
140.265,2,5
140.265,7,7
140.265,5,3
140.269,2,2
140.269,1,1
140.273,0,0
140.273,-1,-1
140.278,-1,-1
140.278,0,1
140.278,1,2
140.282,3,4
140.282,5,4
140.286,4,3
140.286,3,2
140.29,1,0
140.29,0,-1
140.29,-1,0
140.294,1,3
140.294,4,3
140.298,3,2
140.298,2,2
140.302,3,2
140.302,2,2
140.302,2,2
140.306,2,0
140.306,0,0
140.31,-1,0
140.31,0,1
140.314,1,1
140.314,2,2
140.314,3,3
140.318,3,3
140.318,4,3
140.323,2,1
140.323,1,0
140.327,0,1
140.327,2,3
140.327,2,0
140.331,-2,0
140.331,1,2
140.335,2,3
140.335,3,3
140.339,2,2
140.339,2,2
140.339,1,1
140.343,0,0
140.343,0,0
140.347,1,2
140.347,2,1
140.347,1,1
140.351,1,2
140.351,3,3
140.355,2,2
140.355,2,1
140.359,1,1
140.36,1,0
140.36,1,1
140.363,1,2
140.364,3,2
140.368,1,0
140.368,0,1
140.372,2,2
140.372,3,2
140.372,2,2
140.376,2,2
140.376,1,1
140.38,1,1
140.38,1,1
140.384,1,2
140.384,3,3
140.384,2,1
140.388,1,2
140.388,2,1
140.392,1,2
140.392,2,1
140.396,2,2
140.396,1,1
140.396,0,0
140.4,1,1
140.4,2,2
140.405,2,1
140.405,1,1
140.409,2,3
140.409,3,1
140.409,1,1
140.413,1,2
140.413,2,2
140.417,2,2
140.417,1,1
140.421,2,2
140.421,2,2
140.421,2,1
140.425,1,1
140.425,1,1
140.429,2,4
140.429,4,3
140.433,1,0
140.433,1,1
140.433,1,1
140.437,1,1
140.437,1,1
140.441,1,1
140.441,1,0
140.441,1,0
140.445,1,1
140.446,2,2
140.45,1,2
140.45,2,2
140.454,2,2
140.454,3,2
140.454,2,1
140.458,0,0
140.458,0,0
140.462,0,1
140.462,2,2
140.466,2,2
140.466,2,2
140.466,3,3
140.47,2,2
140.47,1,1
140.474,1,1
140.474,0,0
140.478,0,0
140.478,0,1
140.478,2,4
140.482,4,3
140.482,2,2
140.486,1,1
140.487,1,2
140.491,1,1
140.491,1,1
140.491,0,0
140.495,0,0
140.495,1,2
140.499,3,3
140.499,3,2
140.503,2,2
140.503,2,1
140.503,1,1
140.507,1,1
140.507,0,1
140.511,1,0
140.511,1,1
140.515,0,0
140.515,0,0
140.515,0,1
140.519,3,4
140.519,5,5
140.523,4,2
140.523,1,0
140.523,0,1
140.527,1,1
140.527,0,0
140.531,1,1
140.531,1,0
140.536,0,0
140.536,1,2
140.536,3,3
140.54,2,2
140.54,3,2
140.544,2,2
140.544,3,3
140.548,3,1
140.548,0,0
140.548,0,0
140.552,0,0
140.552,0,0
140.556,1,2
140.556,2,2
140.56,2,1
140.56,1,2
140.56,2,2
140.564,2,2
140.564,2,3
140.568,2,1
140.568,1,0
140.572,0,0
140.573,1,1
140.573,2,2
140.577,2,2
140.577,2,2
140.581,1,2
140.581,2,3
140.585,2,2
140.585,1,1
140.585,1,1
140.589,1,0
140.589,0,1
140.593,1,1
140.593,1,1
140.597,2,2
140.597,2,2
140.597,2,2
140.601,2,2
140.601,2,2
140.605,1,1
140.605,2,2
140.605,1,2
140.609,2,2
140.609,2,2
140.613,2,1
140.613,1,1
140.617,1,1
140.618,1,2
140.618,2,1
140.622,1,1
140.622,2,3
140.626,4,4
140.626,3,1
140.63,0,0
140.63,0,0
140.63,0,1
140.634,1,2
140.634,2,2
140.638,2,2
140.638,2,2
140.642,2,2
140.642,2,2
140.642,1,1
140.646,1,0
140.646,1,1
140.65,2,3
140.65,2,1
140.654,0,1
140.654,1,1
140.654,0,1
140.658,1,2
140.658,2,2
140.663,1,1
140.663,2,2
140.667,1,1
140.667,1,2
140.667,3,3
140.671,1,1
140.671,1,1
140.675,1,1
140.675,1,2
140.679,1,1
140.679,1,1
140.679,2,2
140.683,3,3
140.683,1,1
140.687,1,1
140.687,1,1
140.691,1,0
140.691,0,1
140.691,2,2
140.695,2,2
140.695,2,1
140.699,1,1
140.699,1,1
140.704,1,1
140.704,0,2
140.704,1,1
140.708,1,1
140.708,1,1
140.712,1,0
140.712,1,1
140.712,1,1
140.716,1,2
140.716,2,2
140.72,2,2
140.72,2,1
140.724,1,2
140.724,2,2
140.724,2,1
140.728,0,0
140.728,1,0
140.732,1,1
140.732,3,4
140.736,4,4
140.736,2,1
140.736,0,0
140.74,1,1
140.74,2,2
140.744,2,2
140.744,2,2
140.749,1,1
140.749,1,1
140.749,1,1
140.753,1,1
140.753,0,0
140.757,1,1
140.757,1,2
140.761,2,3
140.761,3,1
140.761,0,1
140.765,3,2
140.765,1,1
140.769,1,0
140.769,1,1
140.773,1,1
140.773,1,1
140.773,1,2
140.777,2,2
140.777,2,2
140.781,2,2
140.781,1,1
140.785,2,2
140.785,2,2
140.785,2,2
140.79,2,1
140.79,1,0
140.794,1,1
140.794,2,2
140.798,1,1
140.798,1,1
140.798,1,1
140.802,1,1
140.802,0,0
140.806,1,2
140.806,2,2
140.806,2,2
140.81,2,2
140.81,2,1
140.814,1,2
140.814,2,2
140.818,2,2
140.818,1,2
140.818,2,2
140.822,2,2
140.822,2,1
140.826,1,1
140.826,0,1
140.83,1,2
140.83,3,2
140.83,2,1
140.835,0,0
140.835,0,0
140.839,0,1
140.839,2,4
140.843,4,4
140.843,3,1
140.843,1,0
140.847,1,2
140.847,1,1
140.851,0,1
140.851,2,2
140.855,2,2
140.855,2,2
140.855,1,1
140.859,0,1
140.859,2,2
140.863,2,2
140.863,3,2
140.867,1,1
140.867,1,1
140.867,2,2
140.871,1,0
140.871,0,0
140.876,1,1
140.876,1,1
140.88,0,0
140.88,2,2
140.88,3,3
140.884,3,2
140.884,2,2
140.888,2,1
140.888,1,1
140.892,2,2
140.892,1,0
140.892,0,0
140.896,0,1
140.896,2,2
140.9,1,0
140.9,1,1
140.9,2,2
140.904,3,3
140.904,3,1
140.908,1,1
140.908,1,1
140.912,0,0
140.912,0,1
140.912,1,1
140.916,2,2
140.916,2,3
140.921,3,2
140.921,2,1
140.925,1,1
140.925,1,1
140.925,0,0
140.929,1,1
140.929,1,1
140.933,1,1
140.933,1,1
140.937,1,1
140.937,1,1
140.937,3,5
140.941,5,3
140.941,1,0
140.945,0,1
140.945,1,1
140.949,1,1
140.949,1,0
140.949,0,0
140.953,1,1
140.953,1,0
140.957,0,1
140.957,1,3
140.962,4,4
140.962,4,2
140.962,2,1
140.966,1,0
140.966,0,1
140.97,1,1
140.97,1,1
140.974,1,1
140.974,1,0
140.974,1,2
140.978,3,2
140.978,3,3
140.982,3,2
140.982,1,1
140.982,1,1
140.986,1,1
140.986,1,1
140.99,1,1
140.99,1,0
140.994,0,0
140.994,2,2
140.994,2,2
140.998,2,1
140.998,1,1
141.003,2,3
141.003,3,2
141.007,1,0
141.007,1,1
141.007,1,1
141.011,1,1
141.011,1,1
141.015,0,1
141.015,1,1
141.019,1,2
141.019,2,2
141.019,2,3
141.023,2,2
141.023,3,2
141.027,1,0
141.027,0,0
141.031,0,0
141.031,1,3
141.031,4,3
141.035,3,2
141.035,3,2
141.039,1,1
141.039,2,1
141.043,1,0
141.043,0,0
141.043,0,0
141.048,1,2
141.048,4,5
141.052,5,1
141.052,0,0
141.056,0,0
141.056,1,2
141.056,2,2
141.06,1,1
141.06,1,1
141.064,2,1
141.064,1,2
141.064,2,2
141.068,2,1
141.068,1,2
141.072,2,2
141.072,2,2
141.076,2,2
141.076,1,1
141.076,1,1
141.08,1,2
141.08,2,1
141.084,1,1
141.084,2,2
141.089,2,2
141.089,2,1
141.089,1,2
141.093,2,2
141.093,2,2
141.097,1,1
141.097,2,2
141.101,2,2
141.101,2,2
141.101,1,1
141.105,1,1
141.105,1,1
141.109,1,0
141.109,0,0
141.113,1,2
141.113,3,3
141.113,2,1
141.117,0,0
141.117,1,1
141.121,1,1
141.121,1,1
141.125,1,1
141.125,1,1
141.125,1,1
141.129,0,1
141.13,1,1
141.134,1,1
141.134,1,1
141.138,2,2
141.138,2,2
141.138,2,2
141.142,2,3
141.142,2,2
141.146,1,1
141.146,1,1
141.15,1,1
141.15,1,0
141.15,0,1
141.154,1,0
141.154,0,0
141.158,0,1
141.158,2,4
141.158,5,5
141.162,3,1
141.162,0,0
141.166,1,1
141.166,1,1
141.17,1,1
141.17,2,3
141.17,3,2
141.175,1,1
141.175,1,1
141.179,1,1
141.179,0,0
141.183,2,2
141.183,2,2
141.183,1,1
141.187,1,1
141.187,1,1
141.191,0,0
141.191,1,0
141.195,0,0
141.195,2,3
141.195,2,2
141.199,2,2
141.199,2,3
141.203,2,2
141.203,2,2
141.207,2,1
141.207,1,1
141.207,0,0
141.211,1,1
141.211,0,1
141.215,0,0
141.215,0,2
141.22,2,3
141.22,3,3
141.22,3,2
141.224,2,2
141.224,1,1
141.228,1,1
141.228,1,1
141.232,0,1
141.232,1,1
141.232,1,1
141.236,1,1
141.236,2,2
141.24,2,2
141.24,2,2
141.244,2,3
141.244,1,1
141.244,1,0
141.248,1,1
141.248,1,2
141.252,1,1
141.252,0,1
141.252,2,1
141.256,0,1
141.256,2,4
141.261,4,5
141.261,3,1
141.265,0,0
141.265,0,1
141.265,2,2
141.269,2,2
141.269,2,1
141.273,1,0
141.273,1,1
141.277,1,1
141.277,1,1
141.277,1,2
141.281,2,2
141.281,2,2
141.285,2,2
141.285,2,2
141.289,1,1
141.289,2,2
141.289,1,0
141.293,0,0
141.293,1,1
141.297,1,0
141.297,1,2
141.301,3,3
141.302,3,2
141.302,2,2
141.306,2,1
141.306,0,0
141.31,0,1
141.31,1,1
141.314,0,1
141.314,1,1
141.314,2,2
141.318,2,2
141.318,2,2
141.322,2,2
141.322,1,2
141.326,2,2
141.326,2,1
141.326,1,0
141.33,1,1
141.33,1,1
141.334,0,0
141.334,1,2
141.338,2,2
141.338,2,2
141.338,2,2
141.342,2,2
141.342,2,1
141.347,1,1
141.347,1,2
141.347,2,2
141.351,2,2
141.351,2,1
141.355,1,1
141.355,2,2
141.359,2,2
141.359,1,1
141.359,1,2
141.363,2,2
141.363,2,2
141.367,3,2
141.367,1,1
141.371,1,1
141.371,1,0
141.371,0,1
141.375,1,1
141.375,1,1
141.379,0,0
141.379,1,2
141.383,3,4
141.383,4,5
141.383,4,2
141.387,0,0
141.387,0,1
141.392,1,1
141.392,1,0
141.396,0,1
141.396,1,2
141.396,2,2
141.4,2,2
141.4,2,2
141.404,2,1
141.404,1,1
141.408,1,1
141.408,1,1
141.408,1,1
141.412,0,1
141.412,1,1
141.416,2,2
141.416,2,2
141.42,1,1
141.42,1,2
141.42,2,3
141.424,3,1
141.424,1,1
141.428,1,1
141.428,2,1
141.433,1,1
141.433,1,1
141.433,1,0
141.437,0,1
141.437,1,2
141.441,2,2
141.441,2,2
141.441,2,1
141.445,1,1
141.445,2,2
141.449,3,2
141.449,2,1
141.453,1,2
141.453,2,2
141.453,1,1
141.457,1,1
141.457,1,2
141.461,2,2
141.461,2,2
141.465,3,1
141.465,1,1
141.465,1,1
141.469,1,1
141.469,1,1
141.474,0,1
141.474,1,1
141.478,1,2
141.478,2,2
141.478,2,2
141.482,1,1
141.482,1,2
141.486,3,3
141.486,1,0
141.49,0,1
141.49,2,5
141.49,5,2
141.494,1,0
141.494,0,0
141.498,0,0
141.498,0,1
141.502,1,1
141.502,1,1
141.502,1,1
141.506,1,2
141.506,2,2
141.51,2,2
141.51,2,2
141.514,2,2
141.515,1,1
141.515,1,2
141.519,2,2
141.519,2,2
141.523,2,2
141.523,2,1
141.527,1,2
141.527,2,2
141.527,1,1
141.531,1,1
141.531,1,1
141.535,1,2
141.535,3,4
141.535,3,2
141.539,2,1
141.539,0,0
141.543,0,0
141.543,1,2
141.547,2,2
141.547,1,1
141.547,1,1
141.551,1,2
141.551,2,2
141.555,2,2
141.555,2,2
141.56,2,2
141.56,1,2
141.56,2,2
141.564,1,1
141.564,1,1
141.568,2,2
141.568,1,1
141.572,2,2
141.572,2,1
141.572,1,1
141.576,1,2
141.576,2,1
141.58,1,1
141.58,2,2
141.584,2,2
141.584,2,2
141.584,2,2
141.588,1,2
141.588,2,2
141.592,1,1
141.592,0,1
141.596,1,2
141.596,2,2
141.596,2,1
141.6,1,0
141.6,0,1
141.605,3,6
141.605,5,2
141.609,0,0
141.609,0,0
141.609,1,2
141.613,2,3
141.613,1,1
141.617,1,1
141.617,2,1
141.621,2,2
141.621,3,2
141.621,1,0
141.625,0,0
141.625,1,2
141.629,2,2
141.629,2,2
141.629,1,2
141.633,2,3
141.633,2,1
141.637,1,0
141.637,0,1
141.641,1,1
141.641,2,2
141.641,3,2
141.646,1,1
141.646,1,0
141.65,1,1
141.65,1,2
141.654,2,2
141.654,2,1
141.654,1,1
141.658,1,1
141.658,2,2
141.662,3,3
141.662,2,2
141.666,1,1
141.666,1,1
141.666,0,0
141.67,1,1
141.67,0,1
141.674,1,2
141.674,1,1
141.678,2,2
141.678,2,1
141.678,1,2
141.682,2,3
141.682,2,2
141.687,1,1
141.687,1,2
141.691,2,1
141.691,0,0
141.691,0,1
141.695,2,1
141.695,1,1
141.699,1,1
141.699,1,1
141.703,2,2
141.703,2,3
141.703,3,1
141.707,1,1
141.707,1,2
141.711,1,1
141.711,1,0
141.715,0,1
141.715,1,1
141.715,1,2
141.719,2,3
141.719,3,2
141.723,2,1
141.723,0,0
141.723,0,0
141.727,1,3
141.727,4,3
141.732,2,2
141.732,1,0
141.736,0,1
141.736,1,2
141.736,1,1
141.74,2,2
141.74,3,3
141.744,1,1
141.744,1,1
141.748,0,1
141.748,1,1
141.748,2,2
141.752,2,2
141.752,1,1
141.756,2,2
141.756,2,1
141.76,1,2
141.76,3,2
141.76,2,1
141.764,1,1
141.764,1,1
141.768,0,0
141.768,1,1
141.773,2,2
141.773,2,2
141.773,2,2
141.777,2,2
141.777,1,1
141.781,1,1
141.781,1,2
141.785,2,2
141.785,2,2
141.785,2,2
141.789,2,2
141.789,1,1
141.793,1,1
141.793,1,2
141.797,2,3
141.797,2,1
141.797,1,0
141.801,1,1
141.801,2,2
141.805,2,2
141.805,2,2
141.809,1,1
141.809,1,1
141.809,1,0
141.814,1,1
141.814,1,1
141.818,1,2
141.818,2,2
141.822,2,2
141.822,2,2
141.822,2,2
141.826,2,1
141.826,1,1
141.83,1,1
141.83,2,2
141.83,1,1
141.834,1,0
141.834,0,1
141.838,3,5
141.838,6,3
141.842,1,0
141.842,0,1
141.842,1,2
141.846,1,1
141.846,1,0
141.85,0,1
141.85,1,1
141.855,2,2
141.855,1,1
141.855,1,1
141.859,1,2
141.859,2,3
141.863,3,2
141.863,1,1
141.867,1,1
141.867,1,0
141.867,0,1
141.871,1,2
141.871,2,2
141.875,2,1
141.875,1,1
141.879,2,2
141.879,2,2
141.879,2,2
141.883,2,2
141.883,2,2
141.887,1,1
141.887,0,0
141.891,1,0
141.891,1,1
141.891,2,2
141.895,1,1
141.895,1,1
141.899,1,1
141.899,2,2
141.904,3,3
141.904,3,2
141.904,2,1
141.908,1,0
141.908,1,1
141.912,2,1
141.912,0,0
141.912,0,1
141.916,1,2
141.916,3,3
141.92,2,2
141.92,1,1
141.924,1,0
141.924,0,0
141.924,0,1
141.928,2,2
141.928,2,0
141.932,0,1
141.932,3,3
141.936,4,4
141.936,2,1
141.936,1,0
141.94,0,1
141.94,1,1
141.944,1,0
141.945,1,1
141.949,1,1
141.949,0,1
141.949,2,2
141.953,2,2
141.953,2,2
141.957,2,2
141.957,2,1
141.961,1,1
141.961,1,0
141.961,0,1
141.965,2,3
141.965,3,2
141.969,1,1
141.969,0,0
141.973,0,0
141.973,1,2
141.973,2,2
141.977,1,1
141.977,2,2
141.981,2,2
141.981,3,2
141.985,2,1
141.986,0,0
141.986,0,1
141.99,2,2
141.99,3,2
141.994,2,2
141.994,1,1
141.998,1,2
141.998,2,2
141.998,1,1
142.002,1,1
142.002,2,2
142.006,2,3
142.006,2,2
142.006,0,0
142.01,1,2
142.01,2,2
142.014,1,1
142.014,2,3
142.018,1,1
142.018,1,1
142.018,1,2
142.022,2,2
142.022,2,2
142.027,2,2
142.027,1,0
142.031,0,1
142.031,2,2
142.031,3,5
142.035,4,2
142.035,0,0
142.039,0,0
142.039,0,1
142.043,2,2
142.043,2,1
142.043,1,2
142.047,2,2
142.047,2,2
142.051,2,2
142.051,2,1
142.055,1,1
142.055,0,1
142.055,2,2
142.059,2,2
142.059,2,1
142.063,2,1
142.063,1,1
142.067,1,1
142.068,1,0
142.068,1,1
142.071,1,1
142.071,0,0
142.076,2,2
142.076,3,2
142.08,2,2
142.08,1,1
142.08,2,2
142.084,2,2
142.084,2,2
142.088,2,2
142.088,0,0
142.092,0,0
142.092,1,2
142.092,3,4
142.096,3,2
142.096,1,0
142.1,0,0
142.1,1,1
142.1,0,1
142.104,1,2
142.104,2,2
142.108,2,2
142.108,2,2
142.112,1,1
142.112,0,1
142.113,0,0
142.117,0,1
142.117,2,5
142.121,4,3
142.121,1,0
142.125,0,0
142.125,0,1
142.125,1,1
142.129,1,1
142.129,1,2
142.133,2,1
142.133,2,2
142.137,2,1
142.137,1,2
142.137,2,3
142.141,2,1
142.141,1,1
142.145,1,1
142.145,1,0
142.149,0,1
142.149,1,1
142.149,2,1
142.153,1,1
142.153,2,2
142.158,2,1
142.158,1,1
142.162,2,2
142.162,2,2
142.162,2,2
142.166,2,2
142.166,2,2
142.17,1,0
142.17,0,0
142.174,1,1
142.174,1,1
142.174,2,2
142.178,2,2
142.178,2,2
142.182,2,2
142.182,2,1
142.182,1,1
142.186,0,1
142.186,1,1
142.19,1,1
142.19,1,2
142.194,2,2
142.194,2,2
142.194,2,1
142.198,1,1
142.198,2,2
142.203,3,2
142.203,1,1
142.207,1,1
142.207,0,0
142.207,1,2
142.211,2,3
142.211,2,1
142.215,0,0
142.215,0,0
142.219,0,1
142.219,1,2
142.219,4,5
142.223,5,3
142.223,2,1
142.227,1,1
142.227,0,0
142.231,0,1
142.231,1,1
142.231,1,1
142.235,0,2
142.235,2,2
142.239,1,0
142.24,0,0
142.244,0,1
142.244,1,2
142.244,2,2
142.248,2,2
142.248,3,3
142.252,2,1
142.252,1,1
142.256,0,0
142.256,0,0
142.256,1,2
142.26,2,3
142.26,2,2
142.264,2,2
142.264,2,2
142.264,2,1
142.268,1,1
142.268,1,1
142.272,1,0
142.272,0,0
142.276,1,1
142.276,1,1
142.276,1,1
142.28,2,3
142.28,3,3
142.284,1,1
142.284,1,1
142.289,1,1
142.289,1,0
142.289,1,1
142.293,1,1
142.293,1,1
142.297,2,2
142.297,2,2
142.301,2,2
142.301,2,2
142.301,2,2
142.305,1,1
142.305,1,1
142.309,1,1
142.309,2,2
142.313,1,1
142.313,0,0
142.313,0,1
142.317,1,1
142.317,1,1
142.321,2,2
142.321,2,2
142.325,2,2
142.325,1,0
142.325,0,1
142.33,3,5
142.33,4,2
142.334,0,0
142.334,0,0
142.338,1,1
142.338,2,2
142.338,3,2
142.342,2,2
142.342,2,1
142.346,1,2
142.346,2,2
142.35,1,1
142.35,1,1
142.35,1,1
142.354,1,1
142.354,2,2
142.358,2,2
142.358,2,2
142.358,2,1
142.362,1,1
142.362,1,2
142.366,2,2
142.366,2,2
142.37,2,2
142.371,1,1
142.371,1,0
142.375,0,0
142.375,1,2
142.379,4,3
142.379,1,1
142.383,2,2
142.383,2,1
142.383,1,0
142.387,0,1
142.387,2,2
142.391,1,1
142.391,1,1
142.395,1,1
142.395,0,0
142.395,0,1
142.399,1,2
142.399,2,2
142.403,2,2
142.403,2,2
142.407,2,2
142.407,2,2
142.407,2,1
142.411,1,1
142.411,1,1
142.416,1,2
142.416,3,3
142.42,1,1
142.42,1,1
142.42,1,1
142.424,0,1
142.424,2,2
142.428,2,1
142.428,1,1
142.432,2,2
142.432,3,2
142.432,1,1
142.436,1,1
142.436,1,1
142.44,2,2
142.44,2,2
142.444,2,2
142.444,2,2
142.444,2,1
142.448,1,0
142.448,1,1
142.452,3,5
142.452,4,2
142.452,0,0
142.456,0,1
142.456,2,2
142.461,2,2
142.461,2,2
142.465,1,1
142.465,1,1
142.465,1,1
142.469,1,2
142.469,2,2
142.473,2,2
142.473,1,1
142.477,2,2
142.477,3,2
142.477,2,1
142.481,1,0
142.481,0,1
142.485,2,2
142.485,2,1
142.489,1,1
142.489,2,2
142.489,2,2
142.493,1,1
142.493,1,2
142.497,2,2
142.497,2,2
142.502,2,2
142.502,2,2
142.502,1,0
142.506,0,0
142.506,2,2
142.51,1,1
142.51,1,0
142.514,1,1
142.514,1,1
142.514,1,2
142.518,2,2
142.518,2,2
142.522,2,2
142.522,3,2
142.526,1,1
142.526,0,0
142.526,1,2
142.53,2,2
142.53,2,2
142.534,1,1
142.534,1,0
142.538,0,1
142.538,1,2
142.538,2,2
142.542,2,2
142.542,2,2
142.547,2,1
142.547,1,1
142.547,1,0
142.551,1,1
142.551,1,2
142.555,2,2
142.555,2,1
142.559,2,2
142.559,2,2
142.559,2,2
142.563,1,1
142.563,1,1
142.567,1,1
142.567,0,1
142.572,1,1
142.572,1,1
142.572,2,5
142.575,5,3
142.575,0,0
142.579,0,0
142.579,1,1
142.583,2,3
142.583,3,2
142.583,2,1
142.588,0,0
142.588,0,1
142.592,2,2
142.592,2,1
142.596,1,1
142.596,1,2
142.596,2,2
142.6,2,2
142.6,2,3
142.604,2,1
142.604,1,1
142.608,1,1
142.608,1,1
142.608,0,1
142.612,1,1
142.612,1,1
142.616,1,2
142.616,1,1
142.62,1,2
142.62,2,2
142.62,2,2
142.624,2,2
142.624,2,2
142.629,1,1
142.629,1,2
142.633,2,2
142.633,2,1
142.633,1,1
142.637,1,1
142.637,2,2
142.641,2,2
142.641,3,2
142.641,2,1
142.645,1,0
142.645,0,1
142.649,1,1
142.649,1,0
142.653,1,1
142.653,2,2
142.653,2,2
142.657,2,2
142.657,2,1
142.661,1,1
142.661,1,1
142.665,1,1
142.665,1,1
142.665,2,2
142.669,2,2
142.669,2,2
142.674,2,2
142.674,1,1
142.678,1,1
142.678,1,2
142.678,2,2
142.682,2,2
142.682,2,2
142.686,2,1
142.686,1,1
142.69,1,1
142.69,0,1
142.69,1,1
142.694,1,2
142.694,2,2
142.698,2,1
142.698,1,1
142.702,1,1
142.702,2,1
142.702,2,2
142.706,3,4
142.706,3,1
142.71,0,0
142.71,0,1
142.715,1,2
142.715,2,2
142.715,1,1
142.719,2,2
142.719,2,3
142.723,2,2
142.723,1,0
142.727,0,1
142.727,1,1
142.727,1,2
142.731,2,2
142.731,1,2
142.735,3,2
142.735,1,1
142.739,1,0
142.739,1,2
142.739,2,2
142.743,1,1
142.743,1,1
142.747,1,0
142.747,1,1
142.747,2,2
142.751,2,2
142.751,2,2
142.755,1,1
142.755,2,2
142.76,2,2
142.76,1,1
142.76,2,2
142.764,2,2
142.764,2,2
142.768,2,1
142.768,1,1
142.772,1,1
142.772,0,1
142.772,1,1
142.776,1,1
142.776,1,1
142.78,1,2
142.78,2,3
142.784,3,2
142.784,2,2
142.784,1,0
142.788,0,0
142.788,1,2
142.792,1,1
142.792,2,2
142.796,2,2
142.796,1,1
142.796,1,1
142.801,2,2
142.801,2,2
142.805,2,1
142.805,1,0
142.809,1,1
142.809,2,3
142.809,2,2
142.813,2,2
142.813,2,1
142.817,2,2
142.817,2,1
142.821,1,1
142.821,1,1
142.821,2,2
142.825,2,1
142.825,1,0
142.829,0,0
142.829,1,2
142.833,2,2
142.833,2,1
142.833,1,1
142.837,1,2
142.837,3,3
142.842,2,2
142.842,1,1
142.842,0,0
142.846,1,1
142.846,2,2
142.85,3,2
142.85,2,1
142.854,0,0
142.854,0,0
142.854,0,2
142.858,2,3
142.858,3,3
142.862,2,1
142.862,1,1
142.866,2,3
142.866,2,1
142.866,1,1
142.87,1,1
142.87,1,1
142.874,1,1
142.874,2,2
142.878,2,2
142.878,2,2
142.878,2,2
142.882,2,1
142.882,2,2
142.887,1,0
142.887,0,1
142.891,1,1
142.891,1,1
142.891,1,0
142.895,1,1
142.895,1,1
142.899,1,1
142.899,1,1
142.903,2,2
142.903,2,3
142.903,3,2
142.907,2,1
142.907,1,1
142.911,1,0
142.911,0,1
142.915,1,1
142.915,1,0
142.915,1,1
142.919,1,2
142.919,2,2
142.923,2,2
142.923,1,1
142.928,1,2
142.928,2,2
142.928,1,2
142.932,3,2
142.932,1,1
142.936,0,1
142.936,1,1
142.936,1,1
142.94,2,2
142.94,3,3
142.944,1,1
142.944,1,1
142.948,1,1
142.948,1,0
142.948,1,1
142.952,2,2
142.952,2,2
142.956,1,1
142.956,2,2
142.96,2,2
142.96,2,2
142.96,1,2
142.964,2,2
142.964,2,1
142.968,1,1
142.968,1,1
142.973,1,1
142.973,0,1
142.973,1,1
142.977,1,1
142.977,1,1
142.981,1,1
142.981,1,1
142.985,2,2
142.985,2,2
142.985,2,2
142.989,2,1
142.989,1,1
142.993,1,1
142.993,1,1
142.997,2,2
142.997,1,1
142.997,1,1
143.001,2,2
143.001,2,2
143.005,2,2
143.005,2,1
143.009,1,0
143.009,1,1
143.009,1,2
143.014,2,2
143.014,2,2
143.018,2,1
143.018,1,1
143.022,1,1
143.022,1,1
143.022,2,2
143.026,2,2
143.026,3,2
143.03,1,0
143.03,1,0
143.034,1,1
143.034,2,2
143.034,1,1
143.038,2,2
143.038,3,3
143.042,1,1
143.042,1,0
143.042,1,1
143.046,1,1
143.046,1,1
143.05,1,1
143.05,1,1
143.054,1,2
143.054,2,2
143.054,2,2
143.059,2,2
143.059,2,2
143.063,1,1
143.063,2,2
143.067,1,0
143.067,0,0
143.067,0,1
143.071,3,4
143.071,3,1
143.075,0,0
143.075,0,1
143.079,2,3
143.079,3,2
143.079,1,1
143.083,1,2
143.083,2,2
143.087,1,0
143.087,0,1
143.091,1,1
143.091,2,2
143.091,3,2
143.095,1,0
143.095,1,1
143.1,2,2
143.1,3,2
143.104,1,1
143.104,1,1
143.104,1,1
143.108,0,1
143.108,2,2
143.112,2,2
143.112,1,1
143.116,0,1
143.116,1,1
143.116,1,1
143.12,1,2
143.12,2,3
143.124,3,2
143.124,2,1
143.128,2,2
143.128,2,1
143.128,1,0
143.132,0,1
143.132,1,1
143.136,2,2
143.136,2,2
143.136,1,2
143.141,2,2
143.141,2,2
143.145,2,1
143.145,1,1
143.149,0,2
143.149,1,1
143.149,1,1
143.153,1,1
143.153,2,3
143.157,2,1
143.157,1,0
143.161,1,1
143.161,1,1
143.161,2,2
143.165,3,2
143.165,2,2
143.169,1,1
143.169,1,1
143.173,1,2
143.173,2,2
143.173,2,1
143.177,1,1
143.177,1,1
143.181,1,1
143.181,1,2
143.186,2,2
143.186,2,2
143.186,1,2
143.19,2,2
143.19,1,2
143.194,2,1
143.194,1,1
143.198,1,2
143.198,3,3
143.198,2,1
143.202,1,1
143.202,1,1
143.206,1,0
143.206,0,1
143.21,1,2
143.21,2,2
143.21,2,2
143.214,2,2
143.214,1,1
143.218,1,1
143.218,1,0
143.222,1,1
143.222,2,4
143.222,4,2
143.226,1,0
143.226,0,0
143.231,0,1
143.231,2,2
143.235,0,0
143.235,1,1
143.235,2,2
143.239,2,2
143.239,2,2
143.243,3,1
143.243,1,1
143.243,1,1
143.247,1,1
143.247,0,1
143.251,1,1
143.251,2,2
143.255,1,1
143.255,1,1
143.255,1,2
143.259,2,2
143.259,2,2
143.263,2,1
143.263,1,1
143.267,2,3
143.267,2,2
143.267,1,0
143.272,0,0
143.272,1,2
143.276,4,4
143.276,3,2
143.28,1,0
143.28,1,1
143.28,2,2
143.284,2,1
143.284,1,0
143.288,1,1
143.288,0,0
143.292,1,1
143.292,1,2
143.292,2,2
143.296,1,1
143.296,1,1
143.3,2,2
143.3,2,3
143.304,3,2
143.304,2,1
143.304,1,0
143.308,0,1
143.308,1,1
143.313,1,1
143.313,1,1
143.317,1,1
143.317,1,2
143.317,2,2
143.321,2,2
143.321,2,2
143.325,2,2
143.325,2,1
143.329,1,1
143.329,1,0
143.329,1,1
143.333,2,2
143.333,1,1
143.337,1,1
143.337,1,2
143.341,2,2
143.341,2,2
143.341,2,2
143.345,1,1
143.345,1,1
143.349,1,1
143.349,1,1
143.349,2,2
143.353,2,2
143.353,2,1
143.358,1,1
143.358,2,2
143.362,2,2
143.362,2,2
143.362,2,2
143.366,1,0
143.366,0,0
143.37,0,1
143.37,2,4
143.374,3,2
143.374,1,0
143.374,0,1
143.378,1,1
143.378,1,1
143.382,1,1
143.382,1,1
143.386,2,2
143.386,2,3
143.386,3,1
143.39,1,1
143.39,1,2
143.394,2,1
143.394,1,1
143.399,1,2
143.399,2,2
143.399,2,2
143.403,3,2
143.403,1,1
143.407,1,1
143.407,1,0
143.411,0,1
143.411,2,2
143.411,2,2
143.415,1,1
143.415,1,1
143.419,2,2
143.419,2,2
143.423,2,2
143.423,1,1
143.423,2,2
143.427,2,2
143.427,2,2
143.431,1,1
143.431,1,1
143.435,2,2
143.435,2,2
143.435,2,2
143.439,2,2
143.44,1,1
143.444,1,0
143.444,1,1
143.448,1,1
143.448,2,3
143.448,3,2
143.452,2,1
143.452,1,1
143.456,1,0
143.456,0,1
143.456,1,2
143.46,2,3
143.46,1,1
143.464,1,1
143.464,1,1
143.468,1,1
143.468,0,1
143.468,1,1
143.472,1,1
143.472,1,1
143.476,2,2
143.476,1,2
143.481,2,3
143.481,3,1
143.481,0,0
143.485,0,1
143.485,2,3
143.489,4,2
143.489,2,0
143.493,0,0
143.493,1,1
143.493,0,1
143.497,1,2
143.497,3,3
143.501,3,2
143.501,1,1
143.505,1,1
143.505,2,2
143.505,1,1
143.509,1,0
143.509,0,0
143.513,1,0
143.513,0,0
143.517,2,3
143.517,3,3
143.517,3,2
143.521,1,1
143.521,2,2
143.526,1,1
143.526,2,2
143.53,2,2
143.53,2,1
143.53,1,0
143.534,0,1
143.534,2,2
143.538,2,2
143.538,1,1
143.538,1,2
143.542,2,2
143.542,2,2
143.546,1,2
143.546,2,2
143.55,2,1
143.55,1,0
143.55,0,1
143.554,0,0
143.554,1,2
143.558,2,2
143.558,2,1
143.562,2,2
143.562,3,2
143.562,1,1
143.566,1,0
143.566,0,0
143.571,0,1
143.571,2,2
143.575,2,2
143.575,1,2
143.575,2,2
143.579,2,2
143.579,2,2
143.583,1,1
143.583,1,1
143.587,1,1
143.587,1,1
143.587,0,1
143.591,1,1
143.591,2,1
143.595,1,1
143.595,1,1
143.599,2,2
143.599,2,2
143.599,2,2
143.603,2,2
143.603,2,2
143.607,0,0
143.607,0,0
143.611,2,2
143.612,3,4
143.612,3,1
143.616,0,0
143.616,1,1
143.62,2,2
143.62,2,2
143.624,2,2
143.624,1,1
143.624,1,1
143.628,0,0
143.628,1,0
143.632,0,1
143.632,1,1
143.636,1,2
143.636,2,2
143.636,2,3
143.64,3,3
143.64,2,2
143.644,1,1
143.644,1,1
143.644,1,1
143.648,1,1
143.648,1,1
143.652,0,1
143.652,1,1
143.657,0,1
143.657,1,1
143.657,1,1
143.661,1,1
143.661,1,1
143.665,1,1
143.665,2,2
143.669,2,2
143.669,2,2
143.669,1,1
143.673,1,1
143.673,1,1
143.677,2,2
143.677,2,1
143.681,1,1
143.681,1,2
143.681,2,3
143.685,3,2
143.685,1,1
143.689,0,0
143.689,1,1
143.693,2,2
143.693,2,2
143.693,1,1
143.697,1,1
143.697,1,1
143.702,1,2
143.702,2,2
143.706,2,2
143.706,1,1
143.706,1,1
143.71,2,2
143.71,2,2
143.714,2,2
143.714,2,2
143.718,1,2
143.718,2,1
143.718,1,1
143.722,1,2
143.722,1,1
143.726,0,1
143.726,1,1
143.73,1,1
143.73,1,1
143.73,0,1
143.734,1,1
143.734,1,1
143.738,1,1
143.738,2,2
143.743,2,2
143.743,2,2
143.743,1,1
143.747,1,1
143.747,1,1
143.751,2,2
143.751,2,2
143.751,1,1
143.755,1,1
143.755,1,1
143.759,2,2
143.759,2,1
143.763,0,1
143.763,2,4
143.763,4,3
143.767,1,1
143.767,1,1
143.771,1,0
143.771,0,0
143.775,1,1
143.775,2,2
143.775,2,2
143.779,2,2
143.779,2,2
143.784,1,1
143.784,2,2
143.788,1,0
143.788,0,0
143.788,1,1
143.792,2,2
143.792,2,2
143.796,1,1
143.796,1,1
143.8,1,1
143.8,2,3
143.8,3,2
143.804,2,1
143.804,1,1
143.808,1,1
143.808,2,2
143.812,1,1
143.812,1,1
143.812,2,2
143.816,2,2
143.816,2,2
143.82,1,1
143.82,2,2
143.825,3,1
143.825,1,1
143.825,1,0
143.829,1,1
143.829,2,2
143.833,2,2
143.833,2,1
143.837,1,0
143.837,0,1
143.837,2,2
143.841,2,2
143.841,2,2
143.845,2,2
143.845,2,2
143.845,1,1
143.849,1,0
143.849,1,1
143.853,1,2
143.853,3,2
143.857,1,0
143.857,1,1
143.857,2,2
143.861,2,2
143.861,2,2
143.865,2,1
143.865,1,0
143.87,0,1
143.87,2,2
143.87,1,1
143.874,1,1
143.874,1,1
143.878,2,2
143.878,1,1
143.882,2,2
143.882,3,2
143.882,2,2
143.886,1,1
143.886,1,1
143.89,1,1
143.89,2,2
143.894,2,2
143.894,2,2
143.894,2,2
143.898,1,1
143.898,2,2
143.902,2,2
143.902,2,1
143.906,1,1
143.906,0,0
143.906,0,1
143.911,1,1
143.911,2,2
143.915,2,2
143.915,2,2
143.919,2,2
143.919,1,2
143.919,2,1
143.923,1,0
143.923,0,0
143.927,2,3
143.927,4,6
143.927,4,2
143.931,0,0
143.931,0,0
143.935,0,1
143.935,2,2
143.939,2,2
143.939,2,1
143.939,1,1
143.943,1,1
143.943,0,2
143.947,2,2
143.947,1,1
143.951,1,1
143.951,1,1
143.951,1,1
143.956,2,2
143.956,2,2
143.96,2,3
143.96,2,2
143.964,2,1
143.964,1,0
143.964,0,0
143.968,1,1
143.968,1,1
143.972,1,1
143.972,1,1
143.976,1,1
143.976,0,1
143.976,1,1
143.98,1,2
143.98,2,2
143.984,2,2
143.984,2,1
143.988,1,2
143.988,2,2
143.988,2,2
143.992,2,2
143.993,1,1
143.997,1,1
143.997,1,2
144.001,4,3
144.001,3,2
144.001,1,1
144.005,0,0
144.005,0,0
144.009,1,1
144.009,1,2
144.013,1,1
144.013,1,1
144.013,1,2
144.017,1,1
144.017,2,2
144.021,2,2
144.021,2,2
144.021,2,2
144.025,2,2
144.025,2,2
144.029,1,1
144.029,0,-1
144.033,0,0
144.033,2,4
144.033,5,2
144.037,1,0
144.037,0,1
144.042,2,2
144.042,2,2
144.046,2,2
144.046,1,1
144.046,1,0
144.05,0,1
144.05,1,1
144.054,1,1
144.054,1,1
144.058,2,2
144.058,2,2
144.058,2,3
144.062,2,2
144.062,2,2
144.066,1,1
144.066,1,0
144.07,0,0
144.07,1,0
144.07,1,1
144.074,1,2
144.074,2,2
144.078,2,2
144.078,2,2
144.083,2,2
144.083,2,2
144.083,1,1
144.087,2,2
144.087,3,1
144.091,1,0
144.091,1,1
144.095,1,1
144.095,2,2
144.095,2,2
144.099,2,3
144.099,2,2
144.103,1,1
144.103,1,0
144.107,0,1
144.107,1,1
144.107,2,2
144.111,2,2
144.111,1,2
144.115,2,2
144.115,2,2
144.115,2,2
144.119,1,1
144.119,1,1
144.123,1,1
144.124,0,1
144.128,1,1
144.128,1,1
144.128,1,2
144.132,2,2
144.132,2,2
144.136,2,2
144.136,2,1
144.14,1,2
144.14,2,2
144.14,2,2
144.144,2,1
144.144,1,0
144.148,1,0
144.148,0,1
144.152,2,5
144.152,4,2
144.152,1,0
