Program Time [s],data 0,data 1
183.488,1,0
183.488,0,0
183.488,1,1
183.492,2,3
183.492,3,2
183.496,2,2
183.496,1,1
183.5,0,1
183.5,1,2
183.5,2,2
183.504,2,2
183.504,0,0
183.508,0,1
183.508,2,3
183.513,2,1
183.513,0,0
183.513,0,0
183.517,1,2
183.517,3,3
183.521,3,2
183.521,2,2
183.525,1,2
183.525,2,2
183.525,2,1
183.529,2,2
183.529,1,1
183.533,1,2
183.533,2,2
183.537,2,2
183.537,2,2
183.537,1,1
183.542,1,1
183.542,1,0
183.545,1,1
183.545,2,1
183.55,1,1
183.55,1,2
183.55,2,2
183.554,2,2
183.554,2,2
183.558,2,2
183.558,1,1
183.562,1,1
183.562,1,1
183.562,0,1
183.566,1,1
183.566,0,1
183.57,1,2
183.57,2,3
183.574,2,2
183.574,1,1
183.574,0,0
183.578,1,1
183.578,1,1
183.582,1,1
183.582,2,2
183.582,1,1
183.586,1,1
183.586,0,0
183.59,1,1
183.59,1,1
183.595,1,1
183.595,1,2
183.595,3,3
183.599,3,2
183.599,1,0
183.603,0,1
183.603,2,2
183.607,2,2
183.607,2,2
183.607,2,2
183.611,2,2
183.611,1,1
183.615,0,0
183.615,0,1
183.619,1,2
183.619,2,2
183.619,1,1
183.623,1,2
183.623,3,3
183.627,2,1
183.627,0,1
183.631,1,1
183.631,1,2
183.632,2,2
183.636,2,2
183.636,2,2
183.64,2,1
183.64,1,1
183.644,0,0
183.644,1,2
183.644,3,3
183.648,2,1
183.648,1,1
183.652,1,1
183.652,2,2
183.656,2,2
183.656,2,2
183.656,2,2
183.66,1,1
183.66,1,0
183.664,0,1
183.664,1,1
183.664,2,2
183.668,2,1
183.668,1,2
183.672,2,2
183.672,2,2
183.677,2,2
183.677,1,1
183.677,1,0
183.681,1,1
183.681,1,1
183.685,1,1
183.685,1,1
183.689,1,1
183.689,1,2
183.689,2,2
183.693,2,2
183.693,2,2
183.697,2,2
183.697,1,1
183.701,1,0
183.701,1,1
183.701,1,1
183.705,1,2
183.705,2,1
183.709,1,1
183.709,2,2
183.713,2,2
183.713,1,1
183.713,1,2
183.717,2,2
183.717,1,1
183.722,1,1
183.722,2,2
183.726,2,1
183.726,1,1
183.726,1,1
183.73,2,2
183.73,2,2
183.734,2,2
183.734,2,2
183.738,1,1
183.738,1,1
183.738,1,1
183.742,1,1
183.742,2,1
183.746,1,0
183.746,0,1
183.75,1,1
183.75,1,2
183.75,2,2
183.754,2,2
183.754,2,2
183.758,1,1
183.758,1,1
183.762,1,1
183.762,1,1
183.762,1,1
183.766,2,2
183.767,2,2
183.771,2,2
183.771,2,3
183.771,1,1
183.775,1,1
183.775,1,1
183.779,1,1
183.779,1,1
183.783,1,1
183.783,1,1
183.783,1,1
183.787,1,1
183.787,1,1
183.791,0,1
183.791,1,1
183.795,1,1
183.795,1,1
183.795,1,1
183.799,1,0
183.799,1,1
183.803,1,1
183.803,1,1
183.807,2,2
183.807,2,2
183.807,2,2
183.812,1,1
183.812,1,1
183.816,2,2
183.816,2,2
183.82,2,2
183.82,2,1
183.82,1,1
183.824,2,2
183.824,1,1
183.828,1,1
183.828,1,1
183.832,1,1
183.832,2,2
183.832,2,2
183.836,2,2
183.836,3,2
183.84,2,1
183.84,0,0
183.844,0,0
183.844,0,1
183.844,2,3
183.848,4,2
183.849,1,0
183.853,0,1
183.853,2,2
183.857,2,2
183.857,2,2
183.857,1,1
183.861,1,1
183.861,1,1
183.865,1,2
183.865,2,2
183.865,2,2
183.869,1,1
183.869,1,1
183.873,2,2
183.873,2,2
183.877,2,2
183.877,2,2
183.877,1,1
183.881,0,1
183.881,1,1
183.885,1,1
183.885,1,2
183.889,2,2
183.89,2,2
183.89,2,2
183.894,2,2
183.894,1,1
183.898,1,1
183.898,0,1
183.902,1,1
183.902,1,1
183.902,1,0
183.906,1,2
183.906,4,4
183.91,2,1
183.91,1,1
183.914,0,1
183.914,1,1
183.914,1,1
183.918,1,0
183.918,1,2
183.922,2,2
183.922,1,1
183.926,0,0
183.926,0,1
183.926,1,2
183.93,2,2
183.93,2,2
183.934,2,2
183.934,2,1
183.939,1,1
183.939,1,1
183.939,1,1
183.943,0,1
183.943,1,2
183.947,2,2
183.947,2,2
183.951,2,2
183.951,2,1
183.951,1,1
183.955,1,2
183.955,2,2
183.959,1,1
183.959,1,1
183.963,1,0
183.963,1,1
183.963,1,2
183.967,2,2
183.967,2,2
183.971,1,1
183.971,1,1
183.971,2,2
183.975,3,2
183.975,1,1
183.98,1,2
183.98,3,2
183.984,2,1
183.984,0,1
183.984,1,1
183.988,1,1
183.988,0,1
183.992,1,1
183.992,2,2
183.996,1,1
183.996,1,1
183.996,2,2
184,3,3
184,1,1
184.004,1,1
184.004,2,2
184.008,2,1
184.008,1,1
184.008,1,1
184.012,1,1
184.012,2,2
184.016,2,2
184.016,2,2
184.02,2,2
184.02,1,1
184.02,2,2
184.025,2,2
184.025,2,1
184.029,1,1
184.029,1,1
184.033,1,2
184.033,2,2
184.033,2,3
184.037,2,2
184.037,1,1
184.041,0,1
184.041,1,0
184.045,1,1
184.045,1,2
184.045,2,2
184.049,1,1
184.049,1,1
184.053,2,2
184.053,2,2
184.057,2,2
184.057,2,2
184.057,1,2
184.061,2,2
184.061,2,1
184.066,1,1
184.066,0,1
184.066,1,1
184.07,2,2
184.07,2,2
184.074,2,2
184.074,2,2
184.078,1,1
184.078,1,1
184.078,1,1
184.082,1,1
184.082,1,1
184.086,2,2
184.086,1,1
184.09,0,0
184.09,1,1
184.09,1,1
184.094,1,1
184.094,1,1
184.098,1,1
184.098,2,2
184.102,2,1
184.102,1,0
184.102,0,1
184.106,1,1
184.106,1,1
184.111,1,2
184.111,2,2
184.115,3,3
184.115,1,1
184.115,1,1
184.119,2,2
184.119,2,2
184.123,2,2
184.123,1,1
184.127,0,0
184.127,1,1
184.127,2,1
184.131,1,1
184.131,1,1
184.135,2,2
184.135,2,2
184.139,1,1
184.139,1,2
184.139,2,2
184.143,2,1
184.143,1,1
184.148,1,1
184.148,1,1
184.152,1,1
184.152,1,1
184.152,1,1
184.156,2,2
184.156,2,2
184.16,1,1
184.16,1,1
184.164,1,1
184.164,1,1
184.164,1,1
184.168,1,1
184.168,1,1
184.172,1,1
184.172,1,1
184.172,1,1
184.176,1,1
184.176,1,1
184.18,1,1
184.18,1,1
184.184,1,1
184.184,1,1
184.184,1,1
184.188,1,1
184.189,2,3
184.193,3,2
184.193,2,1
184.197,0,0
184.197,0,1
184.197,2,2
184.201,3,2
184.201,2,2
184.205,1,1
184.205,1,0
184.209,0,2
184.209,2,2
184.209,2,2
184.213,2,2
184.213,2,2
184.217,2,2
184.217,2,2
184.221,2,1
184.221,1,1
184.221,1,1
184.225,1,0
184.225,0,0
184.229,0,1
184.229,1,2
184.234,2,2
184.234,2,2
184.234,3,2
184.238,2,1
184.238,1,0
184.242,0,1
184.242,1,1
184.246,2,4
184.246,3,2
184.246,1,0
184.25,0,0
184.25,1,1
184.254,1,1
184.254,1,2
184.254,2,2
184.258,2,2
184.258,2,1
184.262,1,0
184.262,0,1
184.266,3,2
184.266,2,1
184.266,1,1
184.27,2,3
184.27,4,2
184.274,0,0
184.274,1,1
184.278,2,3
184.279,2,0
184.279,0,0
184.283,0,2
184.283,4,3
184.287,2,1
184.287,0,0
184.291,0,0
184.291,1,1
184.291,1,2
184.295,2,1
184.295,1,1
184.299,1,2
184.299,2,3
184.303,2,2
184.303,2,2
184.303,1,0
184.307,0,0
184.307,0,2
184.311,3,2
184.311,3,3
184.315,2,1
184.315,1,1
184.315,2,2
184.319,2,1
184.319,1,1
184.324,2,2
184.324,2,2
184.328,1,1
184.328,0,0
184.328,0,1
184.332,2,3
184.332,2,2
184.336,2,2
184.336,2,2
184.34,2,2
184.34,2,1
184.34,1,0
184.344,1,1
184.344,1,1
184.348,2,1
184.348,0,0
184.348,1,2
184.352,2,2
184.352,3,3
184.356,3,2
184.356,1,0
184.36,0,2
184.36,4,2
184.36,0,1
184.364,3,3
184.364,1,0
184.369,0,1
184.369,1,2
184.373,2,2
184.373,1,1
184.373,1,2
184.377,3,2
184.377,1,1
184.381,1,1
184.381,1,2
184.385,2,2
184.385,2,2
184.385,2,2
184.389,2,1
184.389,1,0
184.393,1,1
184.393,2,2
184.397,2,2
184.397,2,2
184.397,1,1
184.401,1,2
184.401,2,1
184.405,1,0
184.405,0,1
184.41,2,2
184.41,2,2
184.41,2,1
184.414,1,1
184.414,1,1
184.418,1,2
184.418,3,4
184.422,3,2
184.422,1,0
184.422,0,0
184.426,0,0
184.426,1,1
184.43,1,2
184.43,3,2
184.43,2,1
184.434,0,0
184.434,1,2
184.438,2,1
184.438,1,1
184.442,2,2
184.442,1,1
184.442,1,1
184.446,1,1
184.446,2,2
184.45,2,2
184.451,2,2
184.455,2,1
184.455,2,2
184.455,2,2
184.459,1,1
184.459,1,0
184.463,1,2
184.463,2,2
184.467,1,2
184.467,2,2
184.467,1,2
184.471,3,3
184.471,2,1
184.475,0,0
184.475,0,0
184.479,0,0
184.479,1,1
184.479,0,0
184.483,1,2
184.483,2,3
184.487,3,4
184.487,3,2
184.491,2,2
184.491,2,1
184.491,2,2
184.496,2,2
184.496,2,1
184.5,2,2
184.5,1,0
184.504,0,0
184.504,1,1
184.504,0,0
184.508,1,1
184.508,2,2
184.512,1,1
184.512,2,2
184.516,2,2
184.516,2,2
184.516,2,2
184.52,1,1
184.52,1,2
184.524,2,2
184.524,1,1
184.524,1,1
184.528,1,1
184.528,2,2
184.533,2,2
184.533,1,1
184.537,1,1
184.537,1,2
184.537,2,2
184.541,1,1
184.541,1,1
184.545,1,1
184.545,1,1
184.549,1,2
184.549,2,2
184.549,2,2
184.553,2,2
184.553,2,1
184.557,1,1
184.557,1,1
184.561,1,1
184.561,1,1
184.561,2,2
184.565,2,2
184.565,2,2
184.569,2,2
184.569,1,1
184.573,2,2
184.573,1,1
184.573,1,1
184.578,1,1
184.578,1,1
184.582,1,1
184.582,1,1
184.586,1,1
184.586,1,1
184.586,1,1
184.59,1,0
184.59,2,1
184.594,1,2
184.594,3,3
184.598,2,2
184.598,1,1
184.598,1,1
184.602,1,1
184.602,2,2
184.606,2,2
184.606,1,1
184.61,1,0
184.61,0,0
184.61,2,2
184.614,2,2
184.614,2,2
184.618,2,3
184.619,2,1
184.619,1,0
184.623,1,1
184.623,1,1
184.627,1,1
184.627,1,1
184.631,1,1
184.631,2,2
184.631,2,2
184.635,2,2
184.635,2,2
184.639,1,1
184.639,1,1
184.643,1,2
184.643,1,1
184.643,0,0
184.647,1,2
184.647,2,2
184.651,3,2
184.651,2,1
184.655,1,1
184.655,1,1
184.655,1,1
184.659,2,2
184.659,2,1
184.663,1,1
184.663,2,2
184.668,2,2
184.668,2,2
184.668,1,0
184.672,1,2
184.672,2,2
184.676,1,1
184.676,1,1
184.68,2,3
184.68,4,4
184.68,2,0
184.684,0,0
184.684,-1,0
184.688,1,2
184.688,2,1
184.692,1,0
184.692,0,2
184.692,3,3
184.696,2,2
184.696,1,1
184.7,1,0
184.7,0,2
184.704,3,4
184.704,3,2
184.704,1,1
184.709,0,0
184.709,1,1
184.713,1,1
184.713,1,1
184.713,1,1
184.717,2,2
184.717,1,0
184.721,0,0
184.721,1,2
184.725,2,1
184.725,1,1
184.725,2,2
184.729,2,2
184.729,2,2
184.733,2,2
184.733,1,1
184.737,1,1
184.737,2,2
184.737,2,2
184.741,2,2
184.741,2,2
184.745,1,1
184.745,1,1
184.75,1,2
184.75,3,2
184.75,2,2
184.754,2,1
184.754,1,1
184.758,1,1
184.758,1,1
184.762,1,1
184.762,0,0
184.762,1,1
184.766,1,1
184.766,1,1
184.77,0,2
184.77,3,5
184.774,5,4
184.774,2,1
184.774,1,1
184.778,0,1
184.778,2,1
184.782,0,0
184.782,1,1
184.786,0,0
184.786,0,0
184.786,0,1
184.79,1,1
184.79,1,1
184.795,1,1
184.795,2,3
184.799,3,2
184.799,2,2
184.799,1,1
184.803,2,2
184.803,2,2
184.807,1,1
184.807,1,1
184.807,1,1
184.811,1,2
184.811,2,2
184.815,2,2
184.815,2,2
184.819,2,2
184.819,1,1
184.819,1,0
184.823,1,1
184.823,1,1
184.827,1,1
184.827,1,2
184.831,2,2
184.831,2,2
184.831,2,2
184.836,2,2
184.836,1,1
184.84,1,1
184.84,1,1
184.844,0,1
184.844,1,0
184.844,0,1
184.848,2,3
184.848,3,4
184.852,4,3
184.852,2,1
184.856,0,0
184.856,0,0
184.856,1,1
184.86,2,2
184.86,2,1
184.864,1,0
184.864,0,1
184.868,1,2
184.868,3,3
184.868,2,1
184.872,1,2
184.872,2,3
184.877,3,1
184.877,1,1
184.881,1,1
184.881,0,0
184.881,2,2
184.885,1,1
184.885,0,0
184.889,0,1
184.889,2,2
184.889,2,2
184.893,2,2
184.893,3,1
184.897,1,0
184.897,1,1
184.901,2,3
184.901,3,3
184.901,1,1
184.905,1,0
184.905,0,0
184.909,1,1
184.909,2,2
184.913,1,1
184.913,1,1
184.913,2,2
184.917,1,2
184.917,4,3
184.922,3,2
184.922,1,1
184.926,1,1
184.926,0,0
184.926,0,1
184.93,2,2
184.93,2,2
184.934,2,2
184.934,2,1
184.938,1,1
184.938,1,1
184.938,1,2
184.942,1,2
184.942,2,2
184.946,3,3
184.946,1,1
184.95,1,2
184.95,2,2
184.95,2,2
184.954,1,0
184.954,0,1
184.958,1,2
184.958,1,1
184.962,1,1
184.963,1,1
184.963,2,2
184.967,1,1
184.967,1,1
184.971,1,1
184.971,1,1
184.975,0,1
184.975,2,2
184.975,1,2
184.979,2,2
184.979,2,3
184.983,2,2
184.983,1,1
184.983,1,1
184.987,2,2
184.987,1,0
184.991,0,1
184.991,2,3
184.995,2,1
184.995,1,1
184.995,1,1
184.999,1,1
184.999,1,1
185.004,1,1
185.004,0,2
185.008,2,2
185.008,0,0
185.008,0,2
185.012,3,4
185.012,3,1
185.016,1,1
185.016,1,1
185.02,0,1
185.02,0,0
185.02,1,2
185.024,2,2
185.024,1,1
185.028,1,2
185.028,2,2
185.032,2,2
185.032,2,2
185.032,1,1
185.036,2,4
185.036,4,3
185.04,1,0
185.04,0,1
185.044,1,0
185.045,1,1
185.045,1,1
185.049,2,2
185.049,3,2
185.053,1,1
185.053,1,1
185.057,2,2
185.057,1,1
185.057,0,0
185.061,0,1
185.061,1,1
185.065,1,1
185.065,1,1
185.069,2,1
185.069,1,1
185.069,1,1
185.073,2,2
185.073,2,2
185.077,2,2
185.077,1,0
185.081,0,1
185.081,1,1
185.081,2,2
185.085,1,0
185.085,0,0
185.09,0,0
185.09,2,2
185.09,1,2
185.094,2,2
185.094,2,2
185.098,2,2
185.098,2,2
185.102,1,2
185.102,2,1
185.102,0,0
185.106,1,2
185.106,3,2
185.11,2,2
185.11,1,1
185.114,2,2
185.114,2,2
185.114,2,2
185.118,3,2
185.118,1,0
185.122,1,2
185.122,2,2
185.126,2,2
185.126,1,1
185.126,1,1
185.13,1,1
185.13,1,1
185.135,1,1
185.135,2,2
185.139,3,2
185.139,2,2
185.139,1,1
185.143,0,0
185.143,2,3
185.147,2,2
185.147,1,0
185.151,1,1
185.151,1,1
185.151,2,1
185.155,1,2
185.155,2,2
185.159,1,1
185.159,1,1
185.163,0,1
185.163,1,2
185.163,1,1
185.167,1,1
185.167,1,1
185.171,1,1
185.172,1,1
185.176,1,1
185.176,2,1
185.176,0,1
185.18,1,2
185.18,3,2
185.184,0,0
185.184,0,1
185.184,3,3
185.188,2,2
185.188,2,2
185.192,1,1
185.192,0,1
185.196,1,1
185.196,2,2
185.196,2,2
185.2,2,2
185.2,1,1
185.204,2,1
185.204,0,0
185.208,0,1
185.208,2,2
185.208,1,2
185.212,3,3
185.212,3,2
185.216,2,2
185.216,3,2
185.221,1,0
185.221,0,0
185.221,2,3
185.225,3,2
185.225,1,1
185.229,1,2
185.229,2,1
185.233,1,1
185.233,2,2
185.233,3,3
185.237,3,3
185.237,1,0
185.241,0,0
185.241,0,0
185.245,0,1
185.245,2,3
185.245,2,2
185.249,2,1
185.249,1,1
185.253,2,2
185.253,2,2
185.257,3,1
185.257,1,1
185.257,0,1
185.261,2,2
185.261,2,1
185.266,0,0
185.266,1,3
185.266,3,4
185.27,4,2
185.27,0,0
185.274,0,1
185.274,3,3
185.278,2,1
185.278,2,2
185.278,1,0
185.282,0,0
185.282,1,2
185.286,2,2
185.286,2,2
185.29,1,1
185.29,1,2
185.29,3,4
185.294,5,2
185.294,0,-1
185.298,0,0
185.298,0,0
185.302,-1,0
185.302,1,3
185.302,6,5
185.307,2,0
185.307,0,0
185.311,0,1
185.311,5,5
185.315,2,2
185.315,4,3
185.315,1,0
185.319,0,0
185.319,2,2
185.323,1,0
185.323,-1,-1
185.327,0,2
185.327,4,4
185.327,3,0
185.331,0,1
185.331,6,6
185.335,4,4
185.335,3,1
185.339,0,0
185.339,0,0
185.339,-1,0
185.343,1,1
185.343,2,2
185.347,3,3
185.348,1,1
185.352,1,1
185.352,1,1
185.352,1,2
185.356,2,1
185.356,1,1
185.36,1,1
185.36,2,1
185.36,0,0
185.364,0,0
185.364,1,1
185.368,1,1
185.368,2,2
185.372,1,1
185.372,2,2
185.372,2,3
185.376,3,2
185.376,2,1
185.38,1,0
185.38,0,0
185.384,0,0
185.384,1,2
185.384,3,2
185.388,1,2
185.388,3,3
185.393,2,1
185.393,1,1
185.397,0,0
185.397,1,0
185.397,0,1
185.401,3,3
185.401,3,1
185.405,1,0
185.405,0,0
185.409,2,3
185.409,5,4
185.409,3,2
185.414,1,0
185.414,0,0
185.417,2,1
185.417,0,0
185.421,1,1
185.421,0,0
185.421,2,2
185.425,3,2
185.425,3,3
185.429,2,1
185.429,0,1
185.434,3,4
185.434,3,2
185.434,1,1
185.438,1,0
185.438,0,0
185.442,1,2
185.442,4,3
185.442,1,0
185.446,0,0
185.446,1,2
185.45,2,2
185.45,2,2
185.454,2,2
185.454,2,3
185.454,2,1
185.458,1,0
185.458,0,1
185.462,3,2
185.462,1,1
185.466,1,1
185.466,1,1
185.466,2,2
185.47,2,2
185.47,2,2
185.475,1,1
185.475,1,0
185.479,0,0
185.479,0,1
185.479,1,1
185.483,1,1
185.483,1,1
185.487,1,1
185.487,1,1
185.491,1,3
185.491,4,3
185.491,2,1
185.495,1,1
185.495,1,1
185.499,1,1
185.499,1,1
185.503,1,1
185.503,1,1
185.503,1,1
185.507,0,0
185.507,0,1
185.511,1,1
185.511,1,2
185.515,2,2
185.515,2,2
185.515,2,2
185.519,3,2
185.52,1,1
185.524,1,1
185.524,1,1
185.528,2,2
185.528,1,1
185.528,1,1
185.532,1,1
185.532,0,1
185.536,2,2
185.536,3,3
185.536,3,3
185.54,2,1
185.54,0,0
185.544,0,1
185.544,1,1
185.548,2,2
185.548,3,2
185.548,2,1
185.552,2,1
185.552,1,1
185.556,2,2
185.556,2,1
185.561,1,1
185.561,1,1
185.561,2,2
185.565,2,2
185.565,1,1
185.569,1,1
185.569,1,1
185.573,0,0
185.573,2,2
185.573,2,2
185.577,2,2
185.577,2,2
185.581,2,2
185.581,1,1
185.585,0,1
185.585,1,1
185.585,1,1
185.589,2,2
185.589,2,2
185.593,2,2
185.593,2,1
185.597,1,1
185.597,1,1
185.597,2,1
185.601,1,1
185.601,2,3
185.606,3,2
185.606,1,0
185.61,0,1
185.61,1,1
185.61,1,1
185.614,2,2
185.614,2,2
185.618,2,2
185.618,2,1
185.618,1,1
185.622,1,1
185.622,1,1
185.626,1,1
185.626,1,1
185.63,1,1
185.63,2,2
185.63,2,2
185.634,2,2
185.634,2,2
185.638,2,1
185.638,1,1
185.642,1,1
185.642,0,1
185.643,1,1
185.646,2,2
185.646,1,1
185.651,2,2
185.651,2,2
185.655,2,1
185.655,1,1
185.655,1,1
185.659,1,2
185.659,3,3
185.663,2,1
185.663,1,1
185.667,1,1
185.667,2,2
185.667,2,2
185.671,2,2
185.671,2,1
185.675,1,1
185.675,1,0
185.679,2,1
185.679,1,1
185.679,1,0
185.683,1,2
185.683,2,2
185.687,2,2
185.687,1,1
185.692,1,1
185.692,0,2
185.692,2,2
185.696,1,1
185.696,1,1
185.7,1,2
185.7,2,2
185.704,2,2
185.704,2,2
185.704,2,2
185.708,1,1
185.708,1,1
185.712,1,2
185.712,2,3
185.716,2,1
185.716,1,0
185.716,1,2
185.72,2,1
185.72,1,1
185.724,1,2
185.724,2,3
185.728,3,2
185.728,2,1
185.728,1,1
185.733,1,1
185.733,0,0
185.737,1,2
185.737,2,2
185.737,2,2
185.741,2,1
185.741,1,2
185.745,1,1
185.745,2,2
185.749,2,2
185.749,2,2
185.749,2,2
185.753,1,1
185.753,2,2
185.757,2,1
185.757,1,1
185.761,1,1
185.761,0,0
185.761,0,1
185.765,1,1
185.765,2,2
185.769,2,2
185.769,2,2
185.773,3,2
185.773,1,1
185.774,1,1
185.778,1,1
185.778,1,0
185.782,1,1
185.782,1,0
185.786,0,1
185.786,2,2
185.786,2,3
185.79,2,2
185.79,2,2
185.794,2,2
185.794,2,2
185.798,2,2
185.798,1,1
185.798,1,1
185.802,1,2
185.802,1,1
185.806,0,0
185.806,1,1
185.81,1,1
185.81,2,2
185.81,2,2
185.814,2,2
185.814,2,2
185.819,2,1
185.819,1,1
185.823,1,1
185.823,1,1
185.823,2,2
185.827,1,1
185.827,1,1
185.831,1,2
185.831,2,2
185.831,2,2
185.835,2,2
185.835,2,2
185.839,1,1
185.839,0,1
185.843,1,1
185.843,2,2
185.843,1,1
185.847,1,1
185.847,1,1
185.851,2,2
185.851,2,2
185.855,1,1
185.855,1,1
185.855,2,2
185.86,2,2
185.86,2,2
185.864,2,2
185.864,1,1
185.868,1,1
185.868,0,0
185.868,1,1
185.872,2,2
185.872,3,2
185.876,1,1
185.876,1,1
185.88,0,1
185.88,1,1
185.88,1,1
185.884,2,2
185.884,2,1
185.888,1,1
185.888,2,2
185.892,3,2
185.892,2,2
185.892,2,1
185.896,2,2
185.896,1,1
185.9,1,1
185.9,1,1
185.905,1,1
185.905,1,1
185.905,1,1
185.909,1,1
185.909,1,2
185.913,2,2
185.913,2,1
185.917,1,0
185.917,0,0
185.917,2,2
185.921,2,2
185.921,2,2
185.925,2,2
185.925,1,1
185.925,1,1
185.929,1,2
185.929,3,3
185.933,2,2
185.933,1,1
185.937,1,1
185.937,1,1
185.937,1,1
185.941,1,1
185.941,1,1
185.945,1,0
185.946,0,0
185.95,0,0
185.95,2,3
185.95,3,3
185.954,3,2
185.954,2,2
185.958,1,1
185.958,1,0
185.962,1,2
185.962,1,1
185.962,1,1
185.966,1,1
185.966,2,2
185.97,2,2
185.97,2,2
185.974,2,2
185.974,2,1
185.974,1,1
185.978,1,1
185.978,1,1
185.982,0,1
185.982,1,1
185.987,0,1
185.987,1,1
185.987,1,1
185.991,2,2
185.991,2,2
185.995,2,2
185.995,1,1
185.999,2,2
185.999,2,1
185.999,1,1
186.003,1,2
186.003,2,2
186.007,2,2
186.007,2,2
186.011,1,1
186.011,2,2
186.011,2,2
186.015,2,1
186.015,1,1
186.019,0,1
186.019,0,0
186.023,0,1
186.023,2,2
186.023,2,2
186.027,3,2
186.027,2,3
186.032,3,3
186.032,2,1
186.032,1,1
186.036,1,0
186.036,0,1
186.04,1,1
186.04,1,1
186.044,1,1
186.044,0,1
186.044,1,1
186.048,2,2
186.048,2,2
186.052,2,1
186.052,1,2
186.056,3,3
186.056,2,2
186.056,1,1
186.06,1,0
186.06,0,0
186.064,1,1
186.064,2,2
186.068,1,1
186.068,2,2
186.068,2,1
186.072,1,1
186.072,1,2
186.077,4,5
186.077,5,3
186.081,0,-2
186.081,-1,0
186.081,1,2
186.085,2,2
186.085,2,1
186.089,1,2
186.089,2,2
186.093,1,2
186.093,2,3
186.093,2,1
186.097,1,0
186.097,1,1
186.101,2,3
186.101,3,2
186.105,1,1
186.105,1,2
186.105,3,2
186.109,2,1
186.109,1,1
186.113,1,1
186.113,1,1
186.117,1,1
186.117,1,1
186.117,1,2
186.122,1,1
186.122,0,0
186.126,2,2
186.126,2,2
186.13,1,1
186.13,1,1
186.13,1,2
186.134,2,2
186.134,1,1
186.138,1,0
186.138,0,1
186.138,1,0
186.142,0,0
186.142,2,3
186.146,3,2
186.146,2,1
186.15,1,2
186.15,2,3
186.15,3,2
186.154,2,2
186.154,2,1
186.159,1,1
186.159,1,1
186.163,0,0
186.163,0,0
186.163,0,1
186.167,3,3
186.167,3,2
186.171,2,3
186.171,5,4
186.175,4,2
186.175,1,0
186.175,0,0
186.179,-1,-1
186.179,0,1
186.183,1,1
186.183,1,2
186.187,2,2
186.187,1,1
186.187,1,1
186.191,2,2
186.191,1,2
186.195,3,4
186.195,3,2
186.199,1,0
186.199,0,0
186.199,0,1
186.203,1,2
186.204,2,1
186.208,1,1
186.208,1,1
186.212,1,0
186.212,0,0
186.212,0,0
186.216,1,2
186.216,3,3
186.22,2,2
186.22,1,1
186.22,1,1
186.224,2,2
186.224,2,1
186.228,2,2
186.228,2,2
186.232,2,2
186.232,2,2
186.232,2,2
186.236,2,1
186.236,1,1
186.24,1,0
186.24,0,0
186.244,1,1
186.244,1,1
186.244,1,0
186.249,1,2
186.249,3,5
186.253,6,4
186.253,1,0
186.257,0,0
186.257,0,0
186.257,2,3
186.261,2,2
186.261,2,2
186.265,2,2
186.265,2,2
186.269,3,1
186.269,1,2
186.269,2,2
186.273,2,1
186.273,0,0
186.277,0,0
186.277,1,2
186.281,3,3
186.281,2,1
186.281,1,1
186.285,2,1
186.285,0,0
186.29,0,0
186.29,0,0
186.294,0,0
186.294,2,2
186.294,3,3
186.298,4,4
186.298,3,2
186.302,2,2
186.302,2,2
186.306,2,2
186.306,1,1
186.306,1,1
186.31,0,0
186.31,1,1
186.314,1,0
186.314,0,1
186.314,2,2
186.318,2,1
186.318,1,1
186.322,1,1
186.322,1,1
186.326,1,2
186.326,2,2
186.326,2,3
186.331,3,2
186.331,1,0
186.335,0,0
186.335,1,4
186.34,5,5
186.34,2,1
186.34,0,0
186.343,0,0
186.343,0,0
186.347,0,0
186.347,2,2
186.351,3,2
186.351,1,1
186.351,1,1
186.355,1,1
186.355,2,2
186.359,1,1
186.359,2,3
186.363,3,2
186.363,1,1
186.363,1,1
186.367,1,1
186.367,0,0
186.371,1,1
186.372,1,1
186.376,1,1
186.376,1,1
186.376,2,3
186.38,3,3
186.38,2,1
186.384,2,2
186.384,2,2
186.388,1,0
186.388,1,0
186.388,0,0
186.392,1,0
186.392,0,1
186.396,2,2
186.396,2,2
186.396,2,2
186.4,2,2
186.4,2,1
186.404,1,1
186.404,2,3
186.408,2,2
186.408,1,1
186.408,1,1
186.412,1,2
186.412,3,3
186.417,1,1
186.417,0,1
186.421,1,1
186.421,2,2
186.421,1,1
186.425,1,1
186.425,2,2
186.429,1,1
186.429,1,2
186.433,3,5
186.433,5,2
186.433,0,0
186.437,0,0
186.437,0,0
186.441,1,2
186.441,3,2
186.445,1,1
186.445,0,1
186.445,2,2
186.449,3,3
186.449,2,2
186.453,2,2
186.453,1,1
186.457,0,1
186.457,1,1
186.458,0,0
186.462,1,2
186.462,2,2
186.466,2,1
186.466,1,1
186.47,2,2
186.47,2,3
186.47,2,2
186.474,2,1
186.474,1,1
186.478,1,1
186.478,0,0
186.482,1,2
186.482,2,2
186.482,2,2
186.486,2,2
186.486,1,1
186.49,1,1
186.49,1,2
186.49,2,2
186.494,2,2
186.494,2,1
186.498,1,0
186.498,0,1
186.503,1,2
186.503,2,2
186.503,2,2
186.507,2,1
186.507,1,2
186.511,2,3
186.511,2,1
186.515,1,0
186.515,1,2
186.515,2,2
186.519,1,1
186.519,1,1
186.523,1,0
186.523,1,1
186.527,1,1
186.527,1,2
186.527,2,3
186.531,3,2
186.531,2,1
186.535,1,1
186.535,1,0
186.539,0,1
186.539,1,0
186.539,1,1
186.544,1,2
186.544,2,2
186.548,1,2
186.548,4,3
186.552,2,2
186.552,1,1
186.552,1,1
186.556,1,1
186.556,0,0
186.56,0,0
186.56,1,2
186.564,4,5
186.564,5,2
186.564,0,0
186.568,0,2
186.568,2,2
186.572,2,1
186.572,0,0
186.572,0,1
186.576,1,1
186.576,1,1
186.58,1,1
186.58,1,2
186.584,2,2
186.584,1,1
186.584,0,0
186.589,2,3
186.589,2,2
186.593,2,2
186.593,2,1
186.597,1,1
186.597,2,2
186.597,1,1
186.601,1,1
186.601,1,1
186.605,2,2
186.605,4,2
186.609,1,0
186.609,0,0
186.609,1,1
186.613,1,2
186.613,1,1
186.617,1,2
186.617,2,3
186.621,3,2
186.621,1,1
186.621,0,0
186.625,1,1
186.625,1,2
186.629,3,2
186.63,2,2
186.634,1,1
186.634,1,1
186.634,1,1
186.638,0,0
186.638,1,1
186.642,0,0
186.642,0,2
186.646,2,3
186.646,3,3
186.646,3,3
186.65,2,0
186.65,0,1
186.654,1,2
186.654,2,2
186.658,2,2
186.658,1,1
186.658,1,1
186.662,0,1
186.662,2,2
186.666,2,2
186.666,2,2
186.666,2,2
186.67,2,1
186.671,1,1
186.675,1,1
186.675,2,4
186.679,3,3
186.679,2,2
186.679,1,0
186.683,0,0
186.683,0,1
186.687,1,2
186.687,1,0
186.691,0,0
186.691,2,5
186.691,5,4
186.695,1,0
186.695,0,0
186.699,0,1
186.699,2,2
186.703,2,2
186.703,1,2
186.703,2,2
186.707,2,2
186.707,1,1
186.711,2,2
186.711,2,2
186.715,2,1
186.716,1,1
186.716,1,0
186.72,1,2
186.72,2,2
186.724,2,1
186.724,1,0
186.728,0,1
186.728,1,1
186.728,1,2
186.732,3,3
186.732,1,1
186.736,1,1
186.736,0,1
186.74,1,1
186.74,1,1
186.74,1,2
186.744,2,2
186.744,2,2
186.748,2,2
186.748,1,2
186.752,3,2
186.752,2,2
186.752,2,2
186.756,2,1
186.756,0,0
186.761,0,0
186.761,1,1
186.761,1,1
186.765,1,2
186.765,2,2
186.769,1,1
186.769,1,2
186.773,2,3
186.773,3,2
186.773,1,1
186.777,1,0
186.777,0,1
186.781,1,1
186.781,2,2
186.785,2,1
186.785,2,2
186.785,2,2
186.789,2,2
186.789,2,2
186.793,1,1
186.793,0,0
186.797,1,1
186.797,1,1
186.797,0,1
186.801,1,1
186.801,2,2
186.806,2,3
186.806,2,2
186.81,2,1
186.81,0,0
186.81,0,2
186.814,2,1
186.814,1,1
186.818,1,1
186.818,1,1
186.822,0,1
186.822,2,2
186.822,3,3
186.826,2,2
186.826,2,2
186.83,2,2
186.83,2,1
186.834,0,0
186.834,1,1
186.834,1,1
186.838,1,1
186.838,0,1
186.843,1,1
186.843,1,1
186.847,1,0
186.847,0,1
186.847,4,5
186.851,5,3
186.851,2,1
186.855,0,1
186.855,1,0
186.855,0,1
186.859,1,1
186.859,1,2
186.863,3,2
186.863,2,2
186.867,2,1
186.867,2,1
186.867,0,1
186.871,0,1
186.871,2,3
186.875,2,2
186.875,2,2
186.879,2,1
186.879,1,1
186.879,1,1
186.883,1,1
186.883,1,1
186.888,1,1
186.888,0,1
186.892,2,2
186.892,2,2
186.892,2,1
186.896,1,1
186.896,1,0
186.9,1,1
186.9,1,1
186.904,3,4
186.904,4,4
186.904,2,0
186.908,1,0
186.908,0,0
186.912,0,1
186.912,1,2
186.916,2,1
186.916,2,2
186.916,3,2
186.92,2,1
186.92,1,1
186.924,1,1
186.924,1,1
186.928,1,1
186.928,2,2
186.929,2,3
186.933,3,2
186.933,1,1
186.937,1,1
186.937,1,0
186.941,0,1
186.941,2,2
186.941,1,1
186.945,3,2
186.945,2,1
186.949,0,0
186.949,0,1
186.949,3,6
186.953,6,3
186.953,0,-1
186.957,0,0
186.957,0,2
186.961,2,2
186.961,1,0
186.961,0,1
186.965,1,1
186.965,1,1
186.969,0,2
186.969,2,2
186.974,2,1
186.974,2,3
186.974,4,3
186.978,2,1
186.978,0,0
186.982,1,1
186.982,1,1
186.986,1,1
186.986,1,1
186.986,1,0
186.99,0,0
186.99,0,1
186.994,2,3
186.994,3,2
186.998,3,2
186.998,1,1
186.998,0,0
187.002,2,2
187.002,1,1
187.006,1,2
187.006,2,2
187.01,2,2
187.011,2,2
187.011,2,1
187.014,1,1
187.014,2,2
187.019,2,2
187.019,2,1
187.023,1,1
187.023,1,2
187.023,3,2
187.027,2,1
187.027,1,1
187.031,1,1
187.031,1,3
187.035,4,3
187.035,2,1
187.035,0,0
187.039,0,1
187.039,2,1
187.043,1,1
187.043,1,1
187.047,1,1
187.047,2,3
187.047,3,3
187.051,2,2
187.051,1,0
187.056,-1,-2
187.056,0,4
187.056,6,5
187.06,3,1
187.06,0,0
187.064,0,0
187.064,1,2
187.068,1,2
187.068,3,3
187.068,3,2
187.072,1,1
187.072,0,0
187.076,0,1
187.076,1,1
187.08,1,1
187.08,1,1
187.08,1,1
187.084,1,1
187.084,1,2
187.088,2,2
187.088,2,2
187.092,2,2
187.092,2,1
187.092,1,1
187.096,2,2
187.096,2,2
187.1,2,2
187.1,1,1
187.105,1,1
187.105,1,1
187.105,2,2
187.109,1,1
187.109,1,2
187.113,3,3
187.113,2,2
187.117,1,1
187.117,0,0
187.117,0,2
187.121,2,1
187.121,1,1
187.125,1,0
187.125,1,1
187.129,2,2
187.129,2,1
187.129,1,1
187.133,2,2
187.133,1,1
187.137,1,1
187.137,2,2
187.141,2,2
187.141,2,2
187.142,2,2
187.146,2,1
187.146,1,0
187.15,1,1
187.15,1,1
187.15,2,2
187.154,2,2
187.154,3,1
187.158,1,1
187.158,1,1
187.162,1,1
187.162,0,1
187.162,1,1
187.166,2,2
187.166,3,2
187.17,1,1
187.17,1,0
187.174,1,1
187.174,1,2
187.174,2,2
187.178,1,1
187.178,1,1
187.182,1,2
187.182,2,2
187.187,2,3
187.187,2,1
187.187,1,1
187.191,1,1
187.191,1,1
187.195,1,1
187.195,1,1
187.199,1,1
187.199,1,1
187.199,1,1
187.203,1,0
187.203,1,0
187.207,0,1
187.207,2,2
187.211,2,2
187.211,2,2
187.211,2,3
187.215,2,2
187.215,2,2
187.219,1,0
187.219,0,0
187.223,1,1
187.223,2,3
187.223,3,1
187.227,1,1
187.227,1,1
187.232,2,2
187.232,2,2
187.236,3,1
187.236,1,1
187.236,1,2
187.24,2,2
187.24,2,2
187.244,2,2
187.244,1,1
187.248,1,1
187.248,1,0
187.248,1,2
187.252,2,2
187.252,2,2
187.256,1,2
187.256,2,2
187.256,1,1
187.26,1,1
187.26,0,0
187.264,1,1
187.264,1,1
187.268,1,2
187.268,1,1
187.268,0,1
187.273,1,1
187.273,2,2
187.277,2,2
187.277,3,2
187.281,1,1
187.281,1,1
187.281,0,1
187.285,1,0
187.285,1,1
187.289,2,3
187.289,3,2
187.293,1,0
187.293,0,1
187.293,3,3
187.297,5,4
187.297,3,2
187.301,0,0
187.301,0,0
187.305,0,1
187.305,2,2
187.305,2,2
187.309,2,1
187.309,1,1
187.313,1,2
187.313,3,3
187.318,2,1
187.318,1,1
187.318,0,1
187.322,1,2
187.322,2,3
187.326,2,1
187.326,1,1
187.33,0,0
187.33,0,0
187.33,0,1
187.334,3,4
187.334,4,4
187.338,3,1
187.338,0,1
187.342,1,1
187.342,1,1
187.342,1,2
187.346,3,2
187.346,0,-2
187.35,-2,0
187.35,2,3
187.35,5,6
187.355,4,0
187.355,-4,-6
187.359,-2,2
187.359,7,11
187.363,9,4
187.363,4,8
187.363,8,6
187.367,0,-7
187.367,-15,-20
187.371,-15,-4
187.371,11,25
187.375,28,22
187.375,14,6
187.379,2,1
187.379,-2,-10
187.383,-19,-22
187.383,-16,-6
187.383,1,7
187.387,10,12
187.387,10,8
187.391,7,6
187.391,2,4
187.391,6,5
187.395,1,1
187.395,-3,-12
187.4,-18,-18
187.4,-5,8
187.404,14,13
187.404,8,11
187.408,16,4
187.408,-14,-22
187.412,-18,-13
187.412,-5,2
187.412,9,16
187.416,18,17
187.416,17,14
187.42,10,7
187.42,7,4
187.424,2,0
187.424,-4,-11
187.424,-15,-11
187.428,-5,-3
187.428,-3,0
187.432,3,6
187.432,7,4
187.436,1,0
187.436,0,7
187.436,13,16
187.44,15,6
187.44,-4,-8
187.445,-4,1
187.445,3,6
187.449,5,3
187.449,1,0
187.449,-2,-4
187.453,-4,-3
187.453,0,1
187.457,3,3
187.457,1,0
187.461,0,0
187.461,1,3
187.461,3,0
187.465,-1,0
187.465,0,2
187.469,3,4
187.469,3,4
187.473,4,2
187.473,1,1
187.473,2,4
187.477,4,4
187.477,2,0
187.481,-1,-2
187.481,-1,0
187.486,2,1
187.486,1,2
187.486,4,5
187.49,6,6
187.49,5,2
187.494,0,-1
187.494,-1,-2
187.498,0,2
187.498,3,3
187.498,1,0
187.502,0,0
187.502,0,0
187.506,-3,-3
187.506,0,4
187.51,6,8
187.51,8,5
187.51,2,0
187.514,0,1
187.514,3,4
187.518,3,1
187.518,-1,0
187.518,0,1
187.522,2,2
187.522,2,3
187.527,3,2
187.527,0,0
187.531,-1,-2
187.531,-1,0
187.531,1,4
187.535,6,5
187.535,4,2
187.539,1,0
187.539,0,0
187.543,0,1
187.543,1,1
187.543,1,1
187.547,1,1
187.547,2,3
187.551,4,4
187.551,6,5
187.555,3,2
187.555,1,0
187.555,0,0
187.559,0,0
187.559,1,1
187.563,1,0
187.563,0,0
187.567,0,1
187.567,2,3
187.568,4,5
187.572,4,4
187.572,1,0
187.576,1,1
187.576,0,0
187.58,0,0
187.58,1,1
187.58,1,2
187.584,2,2
187.584,3,3
187.588,2,2
187.588,2,2
187.592,2,2
187.592,1,0
187.592,0,0
187.596,1,2
187.596,3,2
187.6,1,0
187.6,0,0
187.604,0,2
187.604,3,4
187.604,3,2
187.608,1,1
187.608,2,1
187.612,0,0
187.612,0,0
187.612,1,2
187.617,2,1
187.617,1,1
187.621,1,2
187.621,2,2
187.625,3,3
187.625,1,1
187.625,1,1
187.629,0,1
187.629,1,1
187.633,1,1
187.633,2,2
187.637,2,2
187.637,3,2
187.637,2,1
187.641,1,2
187.641,3,2
187.645,0,0
187.645,0,0
187.649,1,1
187.649,2,3
187.649,3,2
187.653,1,1
187.653,1,2
187.658,2,2
187.658,1,0
187.662,0,0
187.662,1,1
187.662,0,0
187.666,1,2
187.666,2,3
187.67,4,5
187.67,5,3
187.674,1,0
187.674,0,0
187.674,0,0
187.678,1,1
187.678,1,1
187.682,1,1
187.682,1,1
187.686,1,1
187.686,2,1
187.686,1,2
187.69,4,6
187.69,5,1
187.694,-1,-1
187.694,0,0
187.698,2,1
187.698,1,2
187.699,2,2
187.703,2,2
187.703,1,1
187.707,1,1
187.707,1,1
187.711,1,1
187.711,1,1
187.711,1,2
187.715,2,2
187.715,2,2
187.719,2,2
187.719,2,2
187.719,2,1
187.723,1,0
187.723,1,1
187.727,1,1
187.727,1,2
187.731,2,2
187.731,2,2
187.731,2,3
187.735,4,2
187.735,1,0
187.739,0,0
187.739,0,1
187.744,1,1
187.744,2,2
187.744,1,1
187.748,1,1
187.748,2,2
187.752,2,2
187.752,2,2
187.756,2,2
187.756,2,2
187.756,1,1
187.76,0,0
187.76,0,1
187.764,1,2
187.764,3,3
187.768,2,2
187.768,2,1
187.768,2,2
187.772,1,1
187.772,0,0
187.776,0,1
187.776,2,2
187.78,2,2
187.78,1,1
187.78,0,0
187.784,1,2
187.785,2,4
187.789,4,5
187.789,3,1
187.793,0,0
187.793,0,1
187.793,2,2
187.797,2,1
187.797,1,1
187.801,1,1
187.801,2,2
187.801,2,2
187.805,2,2
187.805,2,1
187.809,1,1
187.809,2,2
187.813,2,2
187.813,1,1
187.813,2,2
187.817,3,2
187.817,1,0
187.821,0,1
187.821,1,1
187.825,1,1
187.825,1,2
187.825,2,2
187.83,2,2
187.83,2,1
187.834,1,1
187.834,1,2
187.838,2,2
187.838,2,1
187.838,1,1
187.842,1,1
187.842,1,2
187.846,2,2
187.846,2,2
187.85,2,2
187.85,1,1
187.85,1,2
187.854,3,3
187.854,3,2
187.858,1,0
187.858,0,0
187.862,1,0
187.862,1,2
187.862,2,2
187.866,2,1
187.866,1,0
187.871,1,1
187.871,2,3
187.875,3,2
187.875,0,0
187.875,0,1
187.879,3,4
187.879,3,2
187.883,1,1
187.883,1,1
187.887,1,1
187.887,0,0
187.887,1,1
187.891,1,1
187.891,1,0
187.895,1,1
187.895,1,1
187.895,1,3
187.899,4,2
187.899,1,0
187.903,1,1
187.903,1,2
187.907,2,2
187.907,2,2
187.907,2,2
187.911,1,1
187.911,1,0
187.916,1,1
187.916,1,2
187.92,2,2
187.92,2,2
187.92,2,2
187.924,2,1
187.924,1,1
187.928,1,1
187.928,2,1
187.932,1,0
187.932,1,1
187.932,2,2
187.936,1,1
187.936,1,1
187.94,1,0
187.94,0,0
187.944,2,3
187.944,3,2
187.944,2,1
187.948,2,2
187.948,2,2
187.952,1,1
187.952,1,0
187.957,0,1
187.957,1,1
187.957,2,1
187.961,1,1
187.961,2,2
187.965,2,2
187.965,2,2
187.969,1,1
187.969,1,1
187.969,2,4
187.973,5,4
187.973,1,0
187.977,0,0
187.977,0,0
187.981,0,1
187.981,1,1
187.981,1,1
187.985,1,1
187.985,1,1
187.989,1,1
187.989,1,2
187.989,2,2
187.993,2,2
187.993,1,1
187.997,1,1
187.997,1,2
188.002,2,2
188.002,2,2
188.002,1,1
188.006,1,1
188.006,2,2
188.01,2,2
188.01,2,2
188.014,3,2
188.014,2,1
188.014,1,0
188.018,1,1
188.018,2,2
188.022,1,1
188.022,0,0
188.026,0,1
188.026,1,1
188.026,1,2
188.03,2,2
188.03,2,2
188.034,2,2
188.034,2,2
188.038,2,2
188.038,1,1
188.038,0,1
188.042,1,2
188.042,1,1
188.047,2,2
188.047,2,2
188.051,2,2
188.051,2,2
188.051,2,1
188.055,1,1
188.055,0,1
188.059,1,1
188.059,1,2
188.063,2,1
188.063,1,1
188.063,0,0
188.067,1,1
188.067,4,6
188.071,6,4
188.071,0,0
188.075,0,0
188.075,1,1
188.075,1,1
188.079,1,1
188.079,1,0
188.084,0,2
188.084,2,2
188.084,1,0
188.088,0,2
188.088,2,2
188.092,2,2
188.092,1,1
188.096,1,1
188.096,2,2
188.096,2,2
188.1,2,2
188.1,1,1
188.104,1,1
188.104,1,2
188.108,2,2
188.108,2,2
188.108,2,2
188.112,2,2
188.112,1,1
188.116,2,1
188.116,1,0
188.12,0,2
188.12,1,1
188.12,1,2
188.124,3,3
188.124,1,0
188.129,1,2
188.129,2,2
188.133,2,2
188.133,1,0
188.133,0,0
188.137,1,1
188.137,2,2
188.141,2,1
188.141,1,2
188.145,2,2
188.145,3,2
188.145,1,1
188.149,1,0
188.149,1,2
188.153,2,2
188.153,1,1
188.157,3,3
188.157,2,1
188.157,0,-1
188.161,0,0
188.161,2,6
188.165,5,3
188.165,1,0
188.169,0,1
188.169,1,1
188.169,1,0
188.174,0,1
188.174,1,1
188.178,1,1
188.178,1,1
188.178,1,2
188.182,2,2
188.182,2,2
188.186,2,2
188.186,1,1
188.19,2,3
188.19,2,2
188.19,2,1
188.194,1,0
188.194,0,0
188.198,1,2
188.198,2,2
188.202,2,2
188.202,1,1
188.202,1,2
188.206,2,1
188.206,1,1
188.21,1,1
188.21,2,3
188.215,3,2
188.215,1,1
188.215,1,2
188.219,2,2
188.219,1,2
188.223,3,2
188.223,2,2
188.227,1,1
188.227,1,1
188.227,1,1
188.231,1,1
188.231,1,1
188.235,1,1
188.235,0,1
188.239,2,2
188.239,2,2
188.239,2,1
188.243,1,1
188.243,2,2
188.247,2,2
188.247,1,2
188.251,2,2
188.251,2,2
188.251,2,2
188.255,1,1
188.255,1,0
188.26,0,0
188.26,2,4
188.264,4,3
188.264,1,0
188.264,0,0
188.268,0,1
188.268,1,2
188.272,2,2
188.272,2,2
188.272,1,1
188.276,1,1
188.276,1,1
188.28,1,1
188.28,1,1
188.284,1,1
188.284,2,2
188.284,2,2
188.288,2,2
188.288,2,1
188.292,2,2
188.292,2,2
188.297,2,1
188.297,0,1
188.297,1,1
188.301,1,2
188.301,2,2
188.305,1,1
188.305,1,3
188.309,4,3
188.309,2,1
188.309,0,0
188.313,0,1
188.313,1,1
188.317,0,1
188.317,1,1
188.321,1,2
188.321,2,2
188.321,2,2
188.325,2,2
188.325,1,1
188.329,1,2
188.329,2,2
188.333,2,2
188.333,2,2
188.333,1,1
188.337,1,2
188.337,2,2
188.342,1,1
188.342,1,2
188.346,3,3
188.346,2,1
188.346,0,0
188.35,0,1
188.35,3,5
188.354,5,2
188.354,0,0
188.358,0,0
188.358,0,0
188.358,0,1
188.362,1,1
188.362,1,2
188.366,2,2
188.366,2,2
188.366,2,2
188.37,2,2
188.37,2,2
188.374,1,1
188.374,1,1
188.378,1,1
188.378,1,1
188.378,2,2
188.382,2,1
188.382,1,1
188.387,1,2
188.387,3,3
188.391,2,1
188.391,1,1
188.391,1,1
188.395,1,0
188.395,0,1
188.399,1,2
188.399,2,2
188.403,2,2
188.403,1,1
188.403,1,1
188.407,1,1
188.407,2,2
188.411,3,3
188.411,1,1
188.415,0,1
188.415,1,1
188.415,1,1
188.419,1,1
188.419,2,3
188.423,3,2
188.423,2,1
188.428,1,0
188.428,0,1
188.428,1,2
188.432,3,2
188.432,2,1
188.436,1,1
188.436,1,1
188.44,1,0
188.44,0,0
188.44,0,1
188.444,2,4
188.444,4,5
188.448,3,1
188.448,0,0
188.452,1,1
188.452,2,1
188.452,1,1
188.456,1,2
188.456,2,2
188.46,2,1
188.46,1,1
188.46,1,1
188.464,1,2
188.464,2,2
188.468,2,2
188.468,2,2
188.473,2,1
188.473,1,1
188.473,0,1
188.477,2,2
188.477,2,1
188.481,1,1
188.481,0,1
188.485,1,1
188.485,2,2
188.485,2,1
188.489,1,1
188.489,1,2
188.493,2,2
188.493,2,1
188.497,1,1
188.497,1,2
188.497,2,2
188.501,2,2
188.501,2,2
188.505,1,1
188.505,1,1
188.509,1,0
188.509,0,1
188.509,1,1
188.514,1,1
188.514,1,2
188.518,3,2
188.518,2,1
188.522,1,2
188.522,2,3
188.522,2,1
188.526,1,0
188.526,1,1
188.53,2,2
188.53,1,1
188.534,1,1
188.534,0,0
188.534,1,1
188.538,0,0
188.538,0,1
188.542,2,5
188.542,5,4
188.546,1,0
188.546,1,1
188.546,2,2
188.55,1,1
188.55,1,1
188.554,2,2
188.555,2,2
188.555,2,2
188.559,2,1
188.559,1,1
188.563,1,1
188.563,2,2
188.567,1,1
188.567,1,1
188.567,1,2
188.571,2,2
188.571,2,2
188.575,1,1
188.575,1,1
188.579,2,1
188.579,1,1
188.579,2,2
188.583,2,2
188.583,1,1
188.587,1,2
188.587,2,2
188.591,2,2
188.591,1,1
188.591,2,2
188.595,3,1
188.595,1,0
188.6,1,2
188.6,2,2
188.604,1,1
188.604,1,1
188.604,1,1
188.608,1,1
188.608,2,2
188.612,2,2
188.612,2,2
188.616,2,2
188.616,2,1
188.616,1,2
188.62,2,1
188.62,1,1
188.624,0,1
188.624,1,2
188.628,3,2
188.628,2,1
188.628,1,2
188.632,2,1
188.632,0,0
188.636,0,0
188.636,1,2
188.641,4,4
188.641,4,2
188.641,0,0
188.645,1,1
188.645,0,0
188.649,1,2
188.649,3,2
188.653,1,1
188.653,1,1
188.653,0,1
188.657,2,1
188.657,1,1
188.661,1,2
188.661,2,3
188.661,2,2
188.665,2,1
188.665,1,1
188.669,1,2
188.669,3,3
188.673,1,1
188.673,1,1
188.673,1,1
188.677,0,1
188.677,1,1
188.681,1,1
188.681,2,2
188.686,2,2
188.686,2,3
188.686,2,1
188.69,1,1
188.69,1,1
188.694,1,1
188.694,1,1
188.698,1,1
188.698,1,1
188.698,1,1
188.702,0,1
188.702,2,2
188.706,2,2
188.706,2,2
188.71,1,1
188.71,2,3
188.71,2,1
188.714,1,1
188.714,1,1
188.718,1,0
188.718,1,1
188.722,2,1
188.722,1,1
188.722,1,2
188.727,2,2
188.727,2,2
188.731,2,2
188.731,2,1
188.735,0,0
188.735,1,2
188.735,3,4
188.739,4,2
188.739,1,1
188.743,1,1
188.743,2,2
188.747,2,2
188.747,2,1
188.747,1,1
188.751,1,1
188.751,1,1
188.755,1,1
188.755,1,1
188.755,1,1
188.759,2,3
188.759,2,2
188.763,1,1
188.763,1,2
188.767,2,2
188.768,2,2
188.768,2,1
188.772,1,1
188.772,0,1
188.776,2,2
188.776,2,1
188.78,1,1
188.78,2,2
188.78,2,2
188.784,1,2
188.784,2,2
188.788,2,2
188.788,1,1
188.792,1,1
188.792,1,1
188.792,1,1
188.796,2,2
188.796,2,1
188.8,1,1
188.8,1,1
188.804,1,2
188.804,2,2
188.804,2,2
188.808,3,2
188.808,1,1
188.813,1,1
188.813,1,1
188.817,0,0
188.817,0,0
188.817,1,1
188.821,2,1
188.821,0,0
188.825,1,2
188.825,4,5
188.829,5,2
188.829,1,0
188.829,0,0
188.833,1,1
188.833,1,2
188.837,2,1
188.837,1,1
188.841,0,0
188.841,1,1
188.841,1,1
188.845,2,2
188.845,2,2
188.849,2,2
188.849,2,2
188.854,2,1
188.854,1,1
188.854,2,2
188.858,2,2
188.858,1,1
188.862,0,0
188.862,0,0
188.862,1,2
188.866,2,2
188.866,2,2
188.87,2,2
188.87,2,2
188.874,1,1
188.874,1,1
188.874,1,1
188.878,2,3
188.878,3,2
188.882,1,0
188.882,1,1
188.886,2,2
188.886,2,1
188.886,1,2
188.89,2,2
188.89,2,2
188.894,2,1
188.894,1,1
188.899,1,1
188.899,0,1
188.899,1,1
188.903,2,2
188.903,2,2
188.907,2,2
188.907,2,2
188.911,1,1
188.911,1,0
188.911,1,1
188.915,1,1
188.915,0,0
188.919,1,3
188.919,3,3
188.923,2,1
188.923,1,1
188.923,1,1
188.927,2,2
188.927,3,3
188.931,2,1
188.931,0,0
188.935,1,1
188.935,0,1
188.935,1,1
188.94,1,1
188.94,2,2
188.944,2,2
188.944,2,3
188.944,2,2
188.948,1,1
188.948,1,0
188.952,0,1
188.952,1,2
188.956,3,2
188.956,2,1
188.956,1,0
188.96,0,1
188.96,1,1
188.964,1,1
188.964,1,1
188.968,1,2
188.968,3,2
188.968,2,1
188.972,1,1
188.972,1,1
188.976,1,2
188.976,2,2
188.98,2,1
188.98,1,1
188.981,1,2
188.985,2,2
188.985,2,2
188.989,2,2
188.989,1,1
188.993,1,1
188.993,1,1
188.993,1,1
188.997,1,2
188.997,2,2
189.001,2,2
189.001,2,1
189.005,1,1
189.005,1,1
189.005,0,0
189.009,2,2
189.009,3,5
189.013,4,2
189.013,0,0
189.017,0,1
189.017,2,2
189.017,2,2
189.021,2,1
189.021,1,1
189.026,1,2
189.026,2,2
189.03,2,2
189.03,2,2
189.03,2,1
189.034,1,1
189.034,1,1
189.038,1,0
189.038,1,1
189.038,1,1
189.042,1,1
189.042,1,1
189.046,2,2
189.046,2,2
189.05,2,2
189.05,2,2
189.05,2,2
189.054,2,2
189.054,1,1
189.058,1,1
189.058,1,0
189.062,0,1
189.062,1,1
189.062,2,2
189.066,2,3
189.066,2,2
189.071,1,1
189.071,1,1
189.075,1,1
189.075,0,0
189.075,1,1
189.079,2,2
189.079,1,1
189.083,1,1
189.083,2,1
189.087,1,1
189.087,2,2
189.087,2,2
189.091,1,2
189.091,3,2
189.095,1,1
189.095,0,1
189.099,1,0
189.099,1,1
189.099,2,2
189.104,2,2
189.104,2,2
189.107,2,2
189.107,2,2
189.112,1,0
189.112,0,0
189.112,2,5
189.116,4,2
189.116,1,0
189.12,0,0
189.12,1,1
189.124,1,2
189.124,2,2
189.124,2,2
189.128,2,2
189.128,2,2
189.132,2,1
189.132,1,2
189.132,2,2
189.136,2,2
189.136,1,1
189.14,1,1
189.14,1,2
189.144,2,2
189.144,3,2
189.144,2,2
189.148,1,1
189.148,1,1
189.153,0,0
189.153,1,1
189.157,0,0
189.157,1,1
189.157,1,2
189.161,2,2
189.161,3,3
189.165,2,2
189.165,1,2
189.169,2,1
189.169,1,2
189.169,2,2
189.173,1,1
189.173,0,0
189.177,0,1
189.177,1,2
189.181,2,2
189.181,2,2
189.181,2,1
189.185,1,2
189.185,2,2
189.189,1,1
189.189,2,2
189.194,2,2
189.194,2,1
189.194,1,2
189.198,2,2
189.198,2,2
189.202,2,2
189.202,1,1
189.206,1,1
189.206,0,1
189.206,1,1
189.21,1,1
189.21,0,0
189.214,3,5
189.214,5,2
189.214,0,0
189.218,0,0
189.218,1,2
189.222,2,2
189.222,1,1
189.226,1,2
189.226,3,3
189.226,3,3
189.23,2,1
189.23,0,0
189.234,0,0
189.234,1,1
189.239,2,2
189.239,2,2
189.239,2,1
189.243,1,1
189.243,1,1
189.247,2,3
189.247,3,2
189.251,1,2
189.251,2,2
189.251,1,1
189.255,1,1
189.255,1,1
189.259,1,1
189.259,1,1
189.263,2,2
189.263,2,2
189.263,1,1
189.267,2,2
189.267,2,2
189.271,1,1
189.271,2,2
189.275,1,2
189.275,2,2
189.275,2,1
189.28,1,1
189.28,1,1
189.284,1,1
189.284,2,2
189.288,2,2
189.288,2,2
189.288,3,1
189.292,1,0
189.292,1,1
189.296,1,1
189.296,1,1
189.3,3,3
189.3,3,2
189.3,1,0
189.304,0,0
189.304,0,1
189.308,3,5
189.308,4,2
189.308,1,0
189.312,0,0
189.312,0,2
189.316,2,1
189.316,1,1
189.32,1,1
189.32,1,1
189.321,1,1
189.324,1,2
189.325,2,2
189.329,2,2
189.329,2,2
189.333,2,2
189.333,2,1
189.333,1,1
189.337,1,0
189.337,1,1
189.341,1,2
189.341,2,3
189.345,2,2
189.345,1,1
189.345,1,1
189.349,1,1
189.349,1,0
189.353,0,1
189.353,1,2
189.357,2,1
189.357,1,1
189.357,1,1
189.361,1,1
189.361,1,2
189.365,2,4
189.365,4,3
189.37,2,0
189.37,0,0
189.37,0,1
189.374,1,1
189.374,1,1
189.378,1,1
189.378,1,0
189.382,1,1
189.382,1,1
189.382,1,1
189.386,1,2
189.386,2,3
189.39,3,2
189.39,1,0
189.394,1,0
189.394,1,4
189.394,4,3
189.398,1,0
189.398,0,0
189.402,0,1
189.402,2,2
189.406,2,2
189.406,3,2
189.406,2,2
189.411,2,2
189.411,1,0
189.415,0,0
189.415,0,0
189.415,0,0
189.419,1,2
189.419,2,3
189.423,2,2
189.423,2,1
189.427,1,1
189.427,2,2
189.427,1,2
189.431,2,2
189.431,2,2
189.435,2,2
189.435,1,1
189.439,1,1
189.439,0,1
189.439,1,2
189.443,2,3
189.443,2,2
189.447,2,1
189.447,1,1
189.452,1,0
189.452,0,0
189.452,1,1
189.456,1,1
189.456,1,1
189.46,1,1
189.46,1,1
189.464,2,2
189.464,2,2
189.464,2,2
189.468,2,2
189.468,2,2
189.472,2,2
189.472,2,1
189.476,0,0
189.476,1,2
189.476,3,2
189.48,2,2
189.48,1,0
189.484,0,0
189.484,1,1
189.488,1,2
189.488,2,2
189.488,2,1
189.492,2,2
189.492,2,2
189.497,2,2
189.497,2,1
189.501,1,1
189.501,2,2
189.501,1,2
189.505,2,2
189.505,2,2
189.509,2,1
189.509,1,2
189.509,1,1
189.513,0,0
189.513,1,1
189.517,1,1
189.517,1,1
189.521,2,2
189.521,3,3
189.521,2,1
189.525,1,1
189.525,1,2
189.529,2,1
189.529,0,0
189.533,0,1
189.533,2,2
189.533,1,2
189.538,2,2
189.538,2,1
189.542,1,1
189.542,2,3
189.546,3,2
189.546,1,1
189.546,1,1
189.55,0,0
189.55,1,1
189.554,2,2
189.554,2,2
189.558,3,2
189.558,1,1
189.558,0,0
189.562,1,1
189.562,2,2
189.566,2,2
189.566,1,1
189.57,1,1
189.57,2,4
189.57,4,4
189.574,2,0
189.574,0,0
189.578,0,0
189.578,1,1
189.583,1,1
189.583,2,2
189.583,2,3
189.587,3,1
189.587,1,1
189.591,2,2
189.591,1,1
189.595,1,2
189.595,2,2
189.595,1,1
189.599,1,1
189.599,2,4
189.603,3,2
189.603,1,1
189.603,1,1
189.607,0,0
189.607,1,1
189.611,1,1
189.611,1,0
189.615,1,1
189.615,1,2
189.615,2,2
189.619,2,2
189.619,1,1
189.623,1,1
189.624,1,1
189.628,2,3
189.628,3,2
189.628,2,1
189.632,1,0
189.632,0,1
189.636,1,1
189.636,1,2
189.64,2,3
189.64,3,3
189.64,2,1
189.644,0,0
189.644,0,0
189.648,1,1
189.648,2,2
189.652,2,2
189.652,3,2
189.652,2,2
189.656,1,0
189.656,0,0
189.66,0,2
189.66,4,5
189.665,5,2
189.665,1,0
189.665,1,1
189.669,1,1
189.669,1,1
189.673,1,1
189.673,1,0
189.677,0,1
189.677,1,1
189.677,0,1
189.681,1,2
189.681,2,2
189.685,2,2
189.685,1,1
189.689,1,2
189.689,2,2
189.689,2,2
189.693,2,1
189.693,1,2
189.697,2,2
189.697,1,1
189.697,1,1
189.701,2,2
189.701,2,2
189.705,3,2
189.705,2,1
189.71,1,0
189.71,1,1
189.71,1,1
189.714,1,1
189.714,1,1
189.718,0,1
189.718,1,1
189.722,1,2
189.722,2,3
189.722,3,2
189.726,1,1
189.726,0,0
189.73,1,1
189.73,1,1
189.734,1,1
189.734,0,1
189.734,2,3
189.738,3,2
189.738,2,2
189.742,2,2
189.742,1,1
189.746,1,0
189.746,0,1
189.746,2,4
189.75,4,3
189.75,1,0
189.755,0,0
189.755,0,1
189.759,1,1
189.759,1,1
189.759,1,2
189.763,2,2
189.763,1,1
189.767,1,1
189.767,1,2
189.771,2,2
189.771,2,2
189.771,2,2
189.775,2,2
189.775,1,1
189.779,1,1
189.779,1,1
189.783,1,1
189.783,0,1
189.783,1,1
189.787,1,2
189.787,3,3
189.791,1,1
189.791,1,1
189.796,0,1
189.796,2,2
189.796,2,2
189.8,1,1
189.8,1,1
189.804,1,1
189.804,2,2
189.804,1,1
189.808,0,0
189.808,1,1
189.812,1,1
189.812,2,2
189.816,1,2
189.816,3,3
189.816,2,1
189.82,0,0
189.82,0,0
189.824,1,1
189.824,2,2
189.828,2,2
189.828,3,2
189.828,1,1
189.832,1,1
189.832,1,0
189.837,2,5
189.837,5,4
189.841,1,0
189.841,0,0
189.841,0,0
189.845,0,0
189.845,1,1
189.849,1,2
189.849,2,2
189.853,1,1
189.853,1,2
189.853,2,2
189.857,2,2
189.857,1,1
189.861,2,2
189.861,2,2
189.865,2,2
189.865,2,1
189.865,2,1
189.869,1,1
189.869,0,0
189.873,1,2
189.873,2,2
189.877,2,1
189.877,1,1
189.877,1,1
189.882,2,2
189.882,2,2
189.886,2,2
189.886,2,2
189.89,2,1
189.89,1,1
189.89,1,1
189.894,2,2
189.894,2,2
189.898,2,2
189.898,1,1
189.898,1,2
189.902,2,2
189.902,2,1
189.906,0,0
189.906,1,1
189.91,2,2
189.91,1,1
189.91,1,1
189.914,2,2
189.914,2,2
189.918,2,2
189.918,2,1
189.923,1,1
189.923,1,1
189.923,2,2
189.927,1,0
189.927,0,2
189.931,3,4
189.931,2,2
189.935,1,0
189.935,0,0
189.935,2,1
189.939,1,1
189.939,1,1
189.943,1,1
189.943,2,2
189.947,3,3
189.947,1,0
189.947,1,1
189.951,2,2
189.951,2,2
189.955,1,1
189.955,1,1
189.959,1,2
189.959,2,2
189.959,2,1
189.963,1,1
189.963,2,2
189.968,2,2
189.968,2,2
189.972,2,2
189.972,1,1
189.972,1,0
189.976,0,1
189.976,2,2
189.98,2,1
189.98,1,1
189.984,0,1
189.984,1,1
189.984,1,1
189.988,1,1
189.988,2,2
189.992,3,3
189.992,2,1
189.992,1,1
189.996,1,1
189.996,0,0
190,2,1
190,1,1
190.004,0,1
190.004,2,3
190.004,4,3
190.008,2,1
190.008,0,0
190.013,0,1
190.013,2,2
190.017,2,1
190.017,1,2
190.017,3,2
190.021,1,0
190.021,0,0
190.025,1,3
190.025,4,3
190.029,1,1
190.029,1,1
190.029,1,1
190.033,1,2
190.033,2,2
190.037,2,1
190.037,1,1
190.041,1,1
190.041,1,1
190.041,1,2
190.045,3,2
190.045,2,2
190.049,2,2
190.049,1,1
190.054,1,1
190.054,1,0
190.054,1,1
190.058,1,1
190.058,1,1
190.062,2,3
190.062,3,2
190.066,1,1
190.066,1,1
190.066,1,2
190.07,2,2
190.07,1,1
190.074,1,0
190.074,0,1
190.078,1,1
190.078,1,0
190.078,1,1
190.082,1,1
190.082,1,2
190.086,2,2
190.086,2,2
190.086,2,3
190.09,2,2
190.09,1,1
190.095,0,0
190.095,1,1
190.099,1,1
190.099,1,1
190.099,1,1
190.103,2,2
190.103,2,3
190.107,3,2
190.107,2,1
190.111,1,0
190.111,0,0
190.111,0,0
190.115,2,4
190.115,4,2
190.119,1,0
190.119,0,0
190.123,1,2
190.123,2,2
190.123,2,1
190.127,1,1
190.127,1,1
190.131,2,2
190.131,2,2
190.135,2,2
190.135,3,2
190.135,0,0
190.14,0,0
190.14,1,1
190.144,1,1
190.144,2,2
190.148,3,3
190.148,3,2
190.148,2,1
190.152,1,1
190.152,1,1
190.156,1,0
190.156,0,0
190.16,1,1
190.16,1,1
190.16,2,2
190.164,2,1
190.164,1,1
190.168,1,2
190.168,2,2
190.172,2,2
190.172,2,2
190.172,2,2
190.176,1,1
190.176,1,1
190.181,2,4
190.181,3,2
190.181,2,1
190.185,0,0
190.185,0,1
190.189,1,1
190.189,0,1
190.193,1,1
190.193,2,3
190.193,3,2
190.197,2,1
190.197,0,0
190.201,1,1
190.201,1,1
190.205,1,1
190.205,1,2
190.205,3,3
190.209,2,1
190.209,1,1
190.213,3,5
190.213,5,2
190.217,0,0
190.217,0,0
190.217,0,1
190.221,1,2
190.221,3,3
190.226,2,1
190.226,1,1
190.23,1,1
190.23,1,0
190.23,1,1
190.234,1,2
190.234,2,2
190.238,2,2
190.238,2,2
190.242,2,2
190.242,1,1
190.242,1,1
190.246,0,1
190.246,1,1
190.25,2,2
190.25,2,2
190.254,3,2
190.254,2,1
190.254,1,1
190.258,1,1
190.258,1,1
190.262,0,0
190.262,1,2
190.267,3,2
190.267,2,2
190.267,1,1
190.271,1,1
190.271,0,1
190.275,1,1
190.275,1,1
190.275,0,1
190.279,1,1
190.279,2,3
190.283,3,1
190.283,1,1
190.287,1,1
190.287,1,2
190.287,3,3
190.291,2,1
190.291,1,1
190.295,1,0
190.295,0,0
190.299,0,0
190.299,1,2
190.299,4,5
190.303,3,2
190.303,0,0
190.307,0,1
190.307,1,1
190.312,1,1
190.312,1,1
190.312,1,0
190.316,1,1
190.316,1,1
190.32,1,2
190.32,3,3
190.324,2,1
190.324,1,1
190.324,1,2
190.328,3,3
190.328,1,1
190.332,0,2
190.332,1,1
190.336,1,0
190.336,1,1
190.336,1,2
190.34,2,2
190.34,2,2
190.344,2,2
190.344,2,1
190.348,1,1
190.348,2,2
190.348,1,1
190.353,1,0
190.353,0,1
190.357,1,1
190.357,1,1
190.361,2,2
190.361,2,2
190.361,2,2
190.365,2,2
190.365,2,2
190.369,1,1
190.369,1,0
190.369,1,1
190.373,1,1
190.373,1,1
190.377,2,2
190.377,2,2
190.381,1,1
190.381,1,1
190.381,2,2
190.385,2,2
190.385,2,2
190.389,2,2
190.389,1,1
190.394,1,1
190.394,1,1
190.394,1,0
190.398,0,1
190.398,4,7
190.402,6,3
190.402,0,0
190.406,0,0
190.406,0,0
190.406,2,1
190.41,1,2
190.41,2,2
190.414,2,2
190.414,2,2
190.418,2,2
190.418,1,1
190.418,0,0
190.422,0,1
190.422,3,4
190.426,3,3
190.426,3,2
190.43,2,1
190.43,1,1
190.43,1,0
190.434,0,0
190.434,0,1
190.439,2,2
190.439,2,2
190.443,2,2
190.443,2,2
190.443,2,2
190.447,1,1
190.447,1,1
190.451,1,1
190.451,1,1
190.451,1,1
190.455,1,1
190.455,2,2
190.459,2,2
190.459,1,1
190.463,1,1
190.463,2,2
190.463,2,2
190.467,2,2
190.467,2,1
190.471,1,1
190.471,1,2
190.475,3,2
190.475,1,1
190.475,1,1
190.48,0,1
190.48,1,1
190.484,1,1
190.484,2,3
190.488,3,1
190.488,1,0
190.488,0,1
190.492,3,5
190.492,5,2
190.496,0,0
190.496,0,0
190.5,1,2
190.5,2,2
190.5,2,2
190.504,1,1
190.504,1,1
190.508,1,1
190.508,1,1
190.512,2,2
190.512,2,2
190.512,2,1
190.516,1,1
190.516,1,1
190.52,2,2
190.52,2,2
190.525,2,2
190.525,2,2
190.525,2,1
190.529,1,1
190.529,1,1
190.533,2,2
190.533,2,2
190.537,1,1
190.537,2,2
190.537,2,2
190.541,2,2
190.541,1,2
190.545,2,2
190.545,2,1
190.549,0,0
190.549,0,1
190.549,1,1
190.553,1,1
190.553,1,0
190.557,1,2
190.557,2,2
190.557,2,2
190.561,1,2
190.561,3,2
190.566,2,2
190.566,2,2
190.57,1,0
190.57,0,0
190.57,0,1
190.574,1,0
190.574,0,1
190.578,3,5
190.578,5,2
190.582,0,0
190.582,0,1
190.582,1,2
190.586,2,3
190.586,2,2
190.59,2,1
190.59,1,1
190.594,0,0
190.594,0,0
190.594,0,1
190.598,1,2
190.598,2,2
190.602,3,3
190.602,3,3
190.607,2,2
190.607,1,1
190.607,0,0
190.611,1,2
190.611,2,1
190.615,1,1
190.615,1,1
190.619,1,1
190.619,2,2
190.619,2,2
190.623,2,2
190.623,2,2
190.627,2,1
190.627,1,1
190.631,0,1
190.631,2,3
190.631,2,1
190.635,1,0
190.635,0,1
190.639,1,1
190.639,1,2
190.639,2,2
190.643,3,2
190.643,1,1
190.647,0,1
190.647,1,2
190.652,2,2
190.652,2,2
190.652,2,1
190.656,1,1
190.656,1,1
190.66,0,1
190.66,1,1
190.664,1,1
190.664,1,1
190.664,1,2
190.668,3,3
190.668,3,2
190.672,1,0
190.672,0,0
190.676,2,5
190.676,5,3
190.676,1,0
190.68,0,0
190.68,0,0
190.684,0,0
190.684,1,2
190.688,4,3
190.688,2,2
190.688,1,1
190.692,1,0
190.692,1,1
190.697,2,3
190.697,3,2
190.701,2,1
190.701,1,2
190.701,2,2
190.705,2,2
190.705,1,1
190.709,1,1
190.709,1,1
190.713,1,1
190.713,1,0
190.713,0,1
190.717,2,2
190.717,3,2
190.721,2,1
190.721,1,1
190.725,1,1
190.725,2,2
190.725,2,2
190.729,2,2
190.729,2,1
190.733,1,1
190.733,0,1
190.734,2,2
190.738,2,2
190.738,2,2
190.742,1,1
190.742,1,1
190.746,1,1
190.746,1,1
190.746,1,1
190.75,1,1
190.75,1,1
190.754,0,1
190.754,1,1
190.758,2,2
190.758,1,1
190.758,1,1
190.762,2,5
190.762,5,3
190.766,0,0
190.766,0,1
190.77,2,1
190.77,1,1
190.77,0,0
190.774,1,1
190.774,1,1
190.779,1,1
190.779,1,1
190.783,1,1
190.783,2,2
190.783,2,3
190.787,4,2
190.787,1,1
190.791,1,1
190.791,1,1
190.795,0,1
190.795,1,0
190.795,1,1
190.799,1,1
190.799,1,1
190.803,1,2
190.803,2,2
190.807,2,2
190.807,2,2
190.807,2,2
190.811,1,1
190.811,1,1
190.815,1,1
190.815,1,1
190.819,2,2
190.82,2,1
190.82,1,1
190.824,1,2
190.824,3,3
190.828,2,1
190.828,1,1
190.828,1,1
190.832,1,1
190.832,1,1
190.836,0,0
190.836,1,1
190.84,1,2
190.84,2,2
190.84,2,2
190.844,2,2
190.844,2,2
190.848,1,1
190.848,1,1
190.852,1,1
190.852,1,1
190.852,1,1
190.856,0,1
190.856,2,2
190.86,2,1
190.86,0,0
190.865,1,3
190.865,3,3
190.865,2,1
190.869,1,1
190.869,2,2
190.873,2,2
190.873,2,1
190.877,1,2
190.877,2,2
190.877,2,1
190.881,1,1
190.881,1,1
190.885,1,2
190.885,2,3
190.889,2,2
190.889,2,2
190.889,1,1
190.893,0,1
190.893,1,2
190.897,3,2
190.897,1,1
190.901,1,1
190.901,1,1
190.901,1,0
190.905,1,2
190.905,2,2
190.91,2,1
190.91,1,1
190.914,1,1
190.914,1,0
190.914,1,1
190.918,2,2
190.918,2,2
190.922,2,2
190.922,1,1
190.926,1,2
190.926,2,2
190.926,2,2
190.93,2,2
190.93,1,1
190.934,1,2
190.934,2,3
190.934,2,1
190.938,1,0
190.938,1,1
190.942,1,2
190.942,2,2
190.946,2,2
190.946,2,2
190.946,1,1
190.951,1,0
190.951,1,0
190.955,0,0
190.955,1,2
190.959,4,4
190.959,5,2
190.959,0,0
190.963,0,1
190.963,1,2
190.967,3,2
190.967,2,2
190.971,2,2
190.971,1,1
190.971,0,0
190.975,1,1
190.975,1,1
190.979,1,1
190.979,2,3
190.983,3,2
190.983,1,0
190.983,1,2
190.987,2,3
190.987,1,1
190.991,0,1
190.992,1,1
190.996,2,2
190.996,3,2
190.996,1,1
191,1,1
191,1,1
191.004,1,1
191.004,1,1
191.008,1,1
191.008,1,2
191.008,2,1
191.012,1,1
191.012,0,0
191.016,1,1
191.016,1,1
191.02,2,2
191.02,2,2
191.02,2,2
191.024,1,1
191.024,2,2
191.028,2,2
191.028,2,2
191.028,1,1
191.032,1,1
191.032,2,2
191.037,2,2
191.037,2,2
191.041,2,2
191.041,1,1
191.041,0,0
191.045,0,2
191.045,2,5
191.049,5,3
191.049,1,0
191.053,0,0
191.053,0,1
191.053,2,2
191.057,2,1
191.057,1,1
191.061,1,1
191.061,0,1
191.065,1,1
191.065,1,1
191.065,1,1
191.069,2,2
191.069,2,1
191.073,1,2
191.073,2,2
191.078,2,2
191.078,2,2
191.078,1,2
191.082,2,2
191.082,1,1
191.086,1,1
191.086,1,2
191.09,2,3
191.09,2,2
191.09,2,1
191.094,0,0
191.094,0,1
191.098,1,2
191.098,2,2
191.102,2,2
191.102,2,2
191.102,1,1
191.106,1,2
191.106,2,3
191.11,3,2
191.11,0,0
191.114,0,1
191.114,1,1
191.114,1,1
191.118,1,1
191.118,1,1
191.123,1,1
191.123,0,1
191.123,1,2
191.127,2,2
191.127,2,2
191.131,2,2
191.131,1,1
191.135,1,0
191.135,0,1
191.135,3,5
191.139,6,3
191.139,0,0
191.143,0,2
191.143,1,1
191.147,1,1
191.147,1,1
191.147,1,1
191.151,1,1
191.151,1,1
191.155,0,1
191.155,1,1
191.159,1,1
191.159,2,2
191.159,2,3
191.163,3,2
191.163,1,1
191.168,1,1
191.168,1,1
191.172,0,0
191.172,1,1
191.172,1,1
191.176,1,1
191.176,2,2
191.18,1,1
191.18,1,2
191.184,2,3
191.184,3,2
191.184,1,1
191.188,1,1
191.188,0,0
191.192,1,1
191.192,1,1
191.196,1,1
191.196,2,2
191.196,2,2
191.2,1,1
191.2,1,1
191.205,2,2
191.205,2,2
191.209,2,2
191.209,2,2
191.209,1,2
191.213,1,1
191.213,1,0
191.217,0,1
191.217,2,3
191.217,1,0
191.221,1,1
191.221,2,2
191.225,1,1
191.225,1,2
191.229,3,3
191.229,1,1
191.229,1,0
191.233,1,1
191.233,1,1
191.237,1,1
191.237,2,2
191.241,2,1
191.241,0,0
191.241,1,2
191.245,4,5
191.245,4,2
191.25,0,0
191.25,0,1
191.254,1,2
191.254,2,2
191.254,2,2
191.258,2,2
191.258,1,1
191.262,2,2
191.262,2,2
191.266,2,1
191.266,1,1
191.266,2,2
191.27,2,2
191.27,2,1
191.274,1,2
191.274,3,2
191.278,1,0
191.278,1,1
191.278,1,2
191.282,2,2
191.282,2,2
191.286,1,2
191.286,2,2
191.29,2,2
191.29,1,1
191.29,2,2
191.295,2,2
191.295,2,2
191.299,1,1
191.299,1,1
191.299,1,1
191.303,1,2
191.303,3,3
191.307,2,2
191.307,2,1
191.311,1,1
191.311,0,0
191.311,0,1
191.315,1,2
191.315,2,2
191.319,1,1
191.319,1,2
191.323,2,2
191.323,2,2
191.323,2,2
191.327,2,1
191.327,1,1
191.331,1,2
191.331,3,3
191.336,1,0
191.336,1,0
191.336,0,0
191.34,1,3
191.34,4,4
191.344,3,2
191.344,1,0
191.348,0,0
191.348,0,2
191.348,1,1
191.352,1,1
191.352,1,2
191.356,2,2
191.356,2,2
191.36,1,2
191.36,2,2
191.36,1,1
191.364,2,2
191.364,2,2
191.368,2,2
191.368,2,1
191.372,1,1
191.372,1,1
191.372,1,1
191.376,1,2
191.376,2,2
191.381,3,3
191.381,1,1
191.385,1,1
191.385,1,1
191.385,1,0
191.389,1,1
191.389,1,1
191.393,1,1
191.393,1,0
191.397,1,1
191.397,1,1
191.397,1,2
191.401,2,3
191.401,2,2
191.405,2,1
191.405,2,3
191.405,2,2
191.409,0,0
191.409,0,2
191.413,2,1
191.413,1,1
191.417,1,1
191.417,1,1
191.417,1,2
191.422,2,2
191.422,2,2
191.426,2,2
191.426,2,2
191.43,2,1
191.43,1,1
191.43,1,1
191.434,2,2
191.434,2,2
191.438,2,2
191.438,2,2
191.442,1,0
191.442,0,0
191.442,1,3
191.446,4,4
191.446,3,1
191.45,0,0
191.45,0,1
191.454,2,3
191.454,3,2
191.454,1,0
191.458,1,1
191.458,1,1
191.463,1,1
191.463,0,1
191.467,1,1
191.467,2,2
191.467,2,2
191.471,2,2
191.471,2,2
191.475,2,1
191.475,1,1
191.479,1,1
191.479,1,0
191.479,2,2
191.483,1,1
191.483,1,1
191.487,2,2
191.487,2,1
191.491,1,1
191.491,1,1
191.491,1,1
191.495,0,0
191.495,1,1
191.499,2,2
191.499,2,2
191.499,2,2
191.503,2,2
191.504,2,2
191.508,2,1
191.508,1,2
191.512,2,2
191.512,2,1
191.512,1,1
191.516,1,1
191.516,1,1
191.52,1,2
191.52,2,2
191.524,2,2
191.524,2,2
191.524,2,2
191.528,2,1
191.528,1,1
191.532,1,1
191.532,0,1
191.536,1,2
191.536,1,1
191.536,1,2
191.54,1,1
191.54,0,0
191.544,2,3
191.544,4,5
191.549,3,1
191.549,0,0
191.549,0,0
191.553,2,1
191.553,1,1
191.557,1,1
191.557,1,2
191.561,3,3
191.561,1,0
191.561,1,1
191.565,1,2
191.565,2,2
191.569,2,2
191.569,2,2
191.573,2,1
191.573,1,1
191.573,1,1
191.577,0,1
191.577,1,1
191.581,1,2
191.581,2,2
191.585,2,2
191.585,2,2
191.585,2,2
191.589,2,1
191.589,1,1
191.594,2,2
191.594,1,1
191.594,1,1
191.598,1,1
191.598,1,1
191.602,1,1
191.602,2,2
191.606,2,2
191.606,2,2
191.606,2,2
191.61,2,1
191.61,1,1
191.614,1,1
191.614,0,1
191.618,1,1
191.618,2,2
191.618,2,2
191.622,2,2
191.622,1,1
191.626,1,1
191.626,2,2
191.63,1,1
191.63,1,1
191.63,3,5
191.635,5,2
191.635,0,0
191.639,0,1
191.639,1,2
191.643,2,2
191.643,2,2
191.643,2,1
191.647,0,0
191.647,0,1
191.651,2,2
191.651,3,3
191.655,1,1
191.655,1,1
191.655,1,1
191.659,1,1
191.659,1,1
191.663,2,2
191.663,2,2
191.667,1,1
191.667,1,1
191.667,2,2
191.671,2,2
191.671,2,2
191.676,2,2
191.676,1,0
191.68,1,2
191.68,3,3
191.68,2,1
191.684,0,0
191.684,0,1
191.688,1,2
191.688,2,2
191.688,1,0
191.692,0,1
191.692,1,1
191.696,1,1
191.696,1,1
191.7,0,1
191.7,1,1
191.7,2,2
191.704,2,2
191.704,2,2
191.708,2,2
191.708,2,2
191.712,1,1
191.712,1,1
191.712,1,1
191.716,2,1
191.716,1,1
191.721,0,1
191.721,0,0
191.725,0,0
191.725,1,3
191.725,4,4
191.729,2,1
191.729,1,0
191.733,0,1
191.733,1,1
191.737,1,0
191.737,1,1
191.737,2,2
191.741,1,1
191.741,1,1
191.745,1,1
191.745,1,2
191.749,2,2
191.749,3,2
191.749,2,2
191.753,1,1
191.753,1,1
191.757,1,2
191.757,2,2
191.761,2,1
191.761,1,1
191.761,2,2
191.766,3,2
191.766,1,1
191.77,0,0
191.77,1,1
191.77,1,2
191.774,2,2
191.774,2,2
191.778,1,1
191.778,2,1
191.782,1,1
191.782,2,2
191.782,2,2
191.786,2,2
191.786,2,2
191.79,1,1
191.79,1,1
191.794,0,1
191.794,1,1
191.794,2,2
191.798,3,2
191.798,1,0
191.802,0,0
191.802,1,1
191.807,2,2
191.807,2,2
191.807,2,2
191.811,1,1
191.811,2,2
191.815,2,2
191.815,1,1
191.819,1,1
191.819,0,1
191.819,1,0
191.823,2,2
191.823,3,5
191.827,4,2
191.827,0,0
191.831,0,1
191.831,2,2
191.831,2,1
191.835,1,1
191.835,1,1
191.839,1,2
191.839,2,2
191.843,2,2
191.843,1,2
191.843,3,2
191.847,2,2
191.847,1,1
191.852,1,1
191.852,0,0
191.856,0,1
191.856,2,2
191.856,2,2
191.86,2,2
191.86,2,2
191.864,1,2
191.864,2,2
191.864,2,2
191.868,1,1
191.868,2,1
191.872,1,0
191.872,1,1
191.876,2,1
191.876,1,1
191.876,0,1
191.88,1,1
191.88,2,2
191.884,2,2
191.884,2,2
191.888,1,1
191.889,1,2
191.889,2,2
191.893,1,1
191.893,1,1
191.897,1,1
191.897,1,1
191.901,2,2
191.901,2,1
191.901,1,1
191.905,2,3
191.905,3,2
191.909,1,1
191.909,1,1
191.913,1,0
191.913,0,1
191.913,0,0
191.917,0,0
191.917,2,5
191.921,6,5
191.921,2,1
191.925,0,0
191.925,0,1
191.925,2,2
191.929,1,1
191.929,1,0
191.934,1,1
191.934,1,1
191.938,1,2
191.938,3,3
191.938,2,1
191.942,1,0
191.942,1,1
191.946,2,2
191.946,3,1
191.95,1,1
191.95,1,1
191.95,1,0
191.954,1,1
191.954,1,1
191.958,2,2
191.958,2,2
191.962,1,1
191.962,1,1
191.962,1,1
191.966,2,3
191.966,3,2
191.97,1,1
191.971,1,1
191.971,0,0
191.974,1,1
191.974,1,1
191.979,2,2
191.979,2,2
191.983,3,2
191.983,1,1
191.983,1,1
191.987,1,1
191.987,0,0
191.991,1,2
191.991,2,2
191.995,2,2
191.995,2,1
191.995,1,1
191.999,1,0
191.999,2,2
192.003,2,1
192.003,1,1
192.007,1,2
192.007,2,2
192.007,2,1
192.011,0,0
192.011,1,3
192.015,5,4
192.015,3,2
192.02,1,0
192.02,0,0
192.02,1,1
192.024,1,1
192.024,1,1
192.028,0,1
192.028,2,2
192.032,2,1
192.032,1,1
192.032,1,1
192.036,1,1
192.036,2,2
192.04,3,3
192.04,2,2
192.044,1,1
192.044,1,1
192.044,1,1
192.048,0,0
192.048,1,2
192.052,2,2
192.052,2,2
192.056,1,1
192.056,1,1
192.056,2,2
192.06,1,2
192.06,2,2
192.065,2,2
192.065,2,2
192.065,2,1
192.069,1,0
192.069,0,1
192.073,1,1
192.073,2,2
192.077,2,2
192.077,1,2
192.077,2,2
192.081,2,2
192.081,2,1
192.085,1,1
192.085,1,1
192.089,2,2
192.089,2,2
192.089,2,2
192.093,2,1
192.093,1,1
192.097,0,1
192.097,1,1
192.102,1,1
192.102,2,2
192.102,2,2
192.106,2,2
192.106,2,2
192.11,2,1
192.11,1,1
192.114,1,1
192.114,0,1
192.114,1,0
192.118,0,1
192.118,3,5
192.122,6,3
192.122,1,0
192.126,0,0
192.126,0,1
192.126,1,2
192.13,2,2
192.13,2,2
192.134,1,1
192.134,1,1
192.138,2,2
192.138,2,2
192.138,2,2
192.142,1,2
192.142,2,2
192.147,2,2
192.147,2,1
192.151,1,1
192.151,1,2
192.151,2,1
192.155,0,0
192.155,0,0
192.159,0,1
192.159,1,2
192.159,3,3
192.163,3,2
192.163,1,1
192.167,1,1
192.167,1,1
192.171,2,2
192.171,3,2
192.171,2,1
192.175,1,1
192.175,2,2
192.179,2,2
192.179,2,2
192.183,1,1
192.183,2,1
192.183,1,1
192.187,0,0
192.187,1,1
192.192,1,2
192.192,2,2
192.196,2,2
192.196,2,2
192.196,2,1
192.2,1,1
192.2,1,1
192.204,0,1
192.204,1,0
192.208,2,5
192.208,4,2
192.208,1,0
