Program Time [s],data 0,data 1
158.713,4,4
158.717,3,1
158.717,0,0
158.721,0,0
158.721,1,1
158.721,1,0
158.725,0,1
158.725,2,3
158.729,2,2
158.729,1,1
158.733,2,2
158.733,3,2
158.733,1,1
158.737,0,1
158.737,3,3
158.741,3,1
158.741,0,1
158.745,1,2
158.745,3,1
158.745,0,1
158.749,1,1
158.749,1,2
158.754,2,2
158.754,1,1
158.758,1,1
158.758,2,2
158.758,2,2
158.762,1,1
158.762,1,2
158.766,2,2
158.766,2,2
158.77,1,1
158.77,1,2
158.77,2,2
158.774,2,3
158.774,3,2
158.778,1,0
158.778,0,0
158.782,1,1
158.782,2,2
158.782,1,1
158.786,2,1
158.786,0,0
158.79,1,2
158.79,3,4
158.795,3,1
158.795,0,1
158.795,1,1
158.799,2,2
158.799,2,2
158.803,2,1
158.803,0,1
158.803,2,2
158.807,2,2
158.807,2,0
158.811,0,0
158.811,1,2
158.815,2,1
158.815,1,1
158.815,1,2
158.819,3,4
158.819,3,2
158.823,1,1
158.823,1,0
158.827,0,0
158.827,0,1
158.827,1,2
158.831,3,3
158.831,2,1
158.836,0,0
158.836,0,2
158.84,4,4
158.84,3,2
158.84,0,-1
158.844,-1,0
158.844,1,3
158.848,4,4
158.848,2,1
158.852,1,1
158.852,0,0
158.852,1,2
158.856,1,1
158.856,0,1
158.86,2,1
158.86,0,0
158.864,2,2
158.864,2,1
158.864,1,2
158.868,2,3
158.868,2,2
158.872,1,0
158.872,0,1
158.876,1,1
158.876,2,2
158.876,1,1
158.881,1,1
158.881,2,2
158.885,2,2
158.885,2,2
158.885,1,0
158.889,-1,0
158.889,1,6
158.893,8,5
158.893,1,0
158.897,0,1
158.897,2,2
158.897,2,2
158.901,1,0
158.901,0,0
158.905,0,0
158.905,1,2
158.909,2,0
158.909,1,1
158.909,2,4
158.913,6,5
158.913,4,3
158.917,4,1
158.917,0,-2
158.922,-3,-2
158.922,0,1
158.922,2,3
158.926,3,2
158.926,2,2
158.93,2,4
158.93,5,4
158.934,3,3
158.934,1,1
158.934,0,0
158.938,0,0
158.938,1,2
158.942,2,1
158.942,1,0
158.946,0,0
158.946,0,0
158.946,0,2
158.95,5,5
158.95,5,2
158.954,1,0
158.954,0,0
158.958,0,1
158.958,2,4
158.958,3,3
158.962,2,0
158.962,0,0
158.967,0,0
158.967,2,2
158.967,3,2
158.971,3,3
158.971,3,2
158.975,2,2
158.975,2,1
158.979,1,1
158.979,1,0
158.979,0,0
158.983,0,0
158.983,0,1
158.987,2,3
158.987,3,3
158.991,4,4
158.991,2,2
158.991,2,2
158.995,2,1
158.995,1,0
158.999,0,0
158.999,0,1
159.004,0,0
159.004,0,2
159.004,3,2
159.008,1,2
159.008,3,4
159.012,3,3
159.012,2,2
159.016,1,1
159.016,1,0
159.016,0,0
159.02,2,2
159.02,2,2
159.024,1,0
159.024,0,0
159.028,1,1
159.028,1,2
159.028,3,3
159.032,2,2
159.032,1,0
159.036,0,0
159.036,1,3
159.04,3,3
159.04,0,1
159.04,1,1
159.044,2,2
159.044,3,2
159.049,2,2
159.049,2,0
159.053,0,0
159.053,1,2
159.053,2,3
159.057,3,3
159.057,2,1
159.061,0,0
159.061,0,1
159.061,1,2
159.065,2,2
159.065,2,1
159.069,1,1
159.069,2,2
159.073,2,2
159.073,2,2
159.073,2,2
159.077,3,2
159.077,1,1
159.081,0,0
159.081,0,1
159.085,2,2
159.085,2,1
159.085,1,1
159.089,1,2
159.089,2,2
159.094,2,2
159.094,2,2
159.098,2,2
159.098,2,1
159.098,1,1
159.102,1,0
159.102,0,1
159.106,2,2
159.106,3,3
159.11,2,2
159.11,2,2
159.11,3,2
159.114,2,1
159.114,1,1
159.118,1,1
159.118,1,1
159.122,0,1
159.122,2,2
159.122,2,1
159.126,0,0
159.126,0,1
159.13,1,2
159.13,2,2
159.135,2,2
159.135,1,1
159.135,1,3
159.139,4,3
159.139,2,1
159.143,0,0
159.143,1,1
159.143,2,2
159.147,1,1
159.147,1,2
159.151,2,3
159.151,3,1
159.155,1,1
159.155,2,1
159.155,0,0
159.159,1,2
159.159,2,2
159.163,2,2
159.163,1,1
159.167,1,0
159.167,0,1
159.167,1,2
159.171,3,3
159.171,4,2
159.175,2,1
159.175,1,1
159.18,0,0
159.18,0,1
159.18,1,1
159.184,1,1
159.184,2,2
159.188,2,3
159.188,3,2
159.192,1,0
159.192,0,1
159.192,1,1
159.196,2,2
159.196,2,2
159.2,2,1
159.2,0,1
159.204,4,3
159.204,2,1
159.204,1,1
159.208,1,1
159.208,1,1
159.212,1,1
159.212,1,1
159.216,1,1
159.216,0,1
159.216,1,1
159.221,1,1
159.221,2,2
159.225,1,2
159.225,2,2
159.225,2,2
159.229,2,2
159.229,2,2
159.233,1,1
159.233,2,2
159.237,2,2
159.237,2,1
159.237,1,1
159.241,1,1
159.241,2,2
159.245,1,1
159.245,2,2
159.249,2,2
159.249,2,1
159.249,1,1
159.253,1,2
159.253,2,2
159.257,1,1
159.257,2,2
159.261,3,2
159.261,1,0
159.262,0,0
159.266,0,1
159.266,4,5
159.27,4,3
159.27,1,1
159.274,0,0
159.274,0,0
159.274,0,0
159.278,1,2
159.278,3,3
159.282,3,1
159.282,0,0
159.286,0,0
159.286,0,1
159.286,2,2
159.29,2,2
159.29,2,2
159.294,2,2
159.294,2,2
159.298,2,2
159.298,2,2
159.298,1,1
159.302,1,1
159.302,1,1
159.307,1,1
159.307,2,3
159.311,3,3
159.311,1,0
159.311,1,2
159.315,2,2
159.315,1,1
159.319,1,1
159.319,1,1
159.319,0,1
159.323,0,0
159.323,0,2
159.327,3,3
159.327,3,2
159.331,1,1
159.331,1,1
159.331,1,2
159.335,2,2
159.335,2,2
159.339,2,2
159.339,1,2
159.343,2,2
159.343,1,1
159.343,1,1
159.347,1,1
159.348,2,2
159.352,2,3
159.352,2,1
159.356,1,1
159.356,1,1
159.356,1,1
159.36,0,1
159.36,1,1
159.364,0,0
159.364,1,1
159.368,2,2
159.368,3,3
159.368,3,3
159.372,2,2
159.372,2,1
159.376,1,1
159.376,1,1
159.38,0,0
159.38,1,1
159.38,1,2
159.384,2,2
159.384,2,2
159.388,1,2
159.388,2,2
159.393,2,2
159.393,1,2
159.393,2,2
159.397,2,1
159.397,0,1
159.401,1,1
159.401,1,2
159.405,2,2
159.405,1,1
159.405,1,2
159.409,2,2
159.409,2,2
159.413,1,1
159.413,1,1
159.413,2,3
159.417,3,2
159.417,2,1
159.421,1,1
159.421,1,0
159.425,0,0
159.425,0,0
159.425,1,2
159.429,2,2
159.429,3,2
159.434,2,2
159.434,2,2
159.438,1,1
159.438,1,0
159.438,1,1
159.442,2,1
159.442,1,1
159.446,2,2
159.446,2,3
159.45,2,1
159.45,1,0
159.45,1,1
159.454,2,2
159.454,2,2
159.458,2,2
159.458,2,1
159.462,1,1
159.462,1,1
159.462,1,1
159.466,1,1
159.466,1,0
159.47,0,1
159.47,2,2
159.474,3,2
159.474,2,1
159.474,1,0
159.479,0,1
159.479,2,2
159.483,2,1
159.483,1,1
159.487,1,1
159.487,1,1
159.487,1,1
159.491,1,2
159.491,2,3
159.495,3,2
159.495,2,1
159.499,1,1
159.499,1,0
159.499,1,1
159.503,1,2
159.503,2,2
159.507,2,2
159.507,1,1
159.511,1,1
159.511,2,2
159.511,2,2
159.515,2,2
159.515,2,2
159.52,1,1
159.52,0,1
159.52,1,1
159.524,1,1
159.524,1,1
159.528,1,1
159.528,1,2
159.532,3,3
159.532,2,2
159.532,2,1
159.536,1,1
159.536,1,1
159.54,0,1
159.54,1,0
159.544,1,1
159.544,2,2
159.544,2,2
159.548,3,2
159.548,1,1
159.552,1,1
159.552,1,1
159.556,1,1
159.556,1,1
159.556,0,1
159.56,1,1
159.561,1,2
159.565,3,3
159.565,1,1
159.569,0,1
159.569,1,2
159.569,3,2
159.573,1,1
159.573,1,2
159.577,2,2
159.577,2,1
159.581,1,1
159.581,0,0
159.581,0,1
159.585,2,2
159.585,1,1
159.589,2,2
159.589,2,2
159.593,2,2
159.593,2,2
159.593,2,2
159.597,2,1
159.597,1,1
159.601,0,1
159.601,0,0
159.606,1,1
159.606,2,2
159.606,2,2
159.61,2,2
159.61,2,2
159.614,1,0
159.614,1,3
159.614,5,4
159.618,3,0
159.618,0,0
159.622,0,0
159.622,0,1
159.626,1,1
159.626,1,1
159.626,2,2
159.63,3,3
159.63,2,1
159.634,1,0
159.634,1,0
159.638,0,0
159.638,1,2
159.638,2,2
159.642,2,2
159.642,2,2
159.646,2,2
159.646,2,2
159.651,1,1
159.651,1,1
159.651,1,1
159.655,1,1
159.655,1,1
159.659,1,1
159.659,0,1
159.663,1,1
159.663,1,0
159.663,1,1
159.667,1,1
159.667,1,1
159.671,1,2
159.671,3,3
159.675,3,2
159.675,2,1
159.675,0,0
159.679,0,2
159.679,2,1
159.683,1,0
159.683,0,1
159.687,2,4
159.687,5,3
159.687,2,1
159.692,0,1
159.692,2,2
159.696,2,1
159.696,1,1
159.7,0,0
159.7,0,1
159.7,1,1
159.704,1,2
159.704,2,2
159.708,2,2
159.708,2,2
159.712,2,2
159.712,2,2
159.712,2,2
159.716,2,1
159.716,1,0
159.72,0,0
159.72,1,0
159.72,0,1
159.724,2,2
159.724,2,2
159.728,2,2
159.728,2,2
159.732,2,2
159.733,2,2
159.733,1,1
159.737,1,1
159.737,0,2
159.741,1,2
159.741,2,2
159.745,1,0
159.745,0,0
159.745,1,2
159.749,3,2
159.749,1,1
159.753,1,1
159.753,1,1
159.757,1,1
159.757,1,1
159.757,1,1
159.761,1,0
159.761,0,0
159.765,1,1
159.765,2,2
159.769,3,2
159.769,2,2
159.769,2,2
159.773,2,2
159.773,2,2
159.778,2,1
159.778,0,0
159.782,0,1
159.782,2,2
159.782,2,2
159.786,2,2
159.786,2,2
159.79,2,2
159.79,2,1
159.794,1,1
159.794,0,0
159.794,0,0
159.798,1,1
159.798,1,2
159.802,2,2
159.802,1,1
159.806,2,3
159.806,3,2
159.806,2,1
159.81,0,0
159.81,1,2
159.814,3,2
159.814,2,2
159.814,2,2
159.818,2,1
159.818,1,1
159.823,1,0
159.823,0,1
159.827,1,2
159.827,2,2
159.827,2,1
159.831,1,2
159.831,2,3
159.835,2,1
159.835,1,1
159.839,0,1
159.839,1,0
159.839,1,1
159.843,1,2
159.843,3,3
159.847,2,2
159.847,1,1
159.851,1,2
159.851,2,2
159.851,2,2
159.855,1,1
159.855,1,1
159.86,2,2
159.86,1,1
159.864,1,1
159.864,1,1
159.864,1,1
159.868,1,1
159.868,2,2
159.872,2,2
159.872,3,2
159.876,2,2
159.876,2,1
159.876,1,0
159.88,0,0
159.88,0,2
159.884,2,1
159.884,1,0
159.888,0,0
159.888,1,2
159.888,3,3
159.892,4,2
159.892,2,1
159.896,0,0
159.896,0,1
159.896,2,2
159.9,2,2
159.9,1,1
159.904,2,2
159.904,3,2
159.909,1,0
159.909,0,0
159.909,1,3
159.913,4,2
159.913,1,1
159.917,0,1
159.917,2,2
159.921,2,1
159.921,1,1
159.921,1,0
159.925,0,1
159.925,2,2
159.929,2,2
159.929,2,1
159.933,2,2
159.933,2,2
159.933,3,2
159.937,1,0
159.937,0,1
159.941,1,2
159.941,2,2
159.945,2,2
159.946,1,1
159.946,1,1
159.95,3,4
159.95,3,3
159.954,2,1
159.954,0,1
159.958,0,0
159.958,1,1
159.958,1,0
159.962,0,1
159.962,1,2
159.966,2,2
159.966,1,1
159.97,1,2
159.97,2,3
159.97,3,2
159.974,1,0
159.974,1,2
159.978,2,2
159.978,1,1
159.982,1,1
159.982,0,0
159.982,1,1
159.986,1,2
159.986,3,3
159.991,3,2
159.991,1,1
159.991,1,1
159.995,1,1
159.995,0,0
159.999,1,1
159.999,2,2
160.003,2,2
160.003,2,2
160.003,2,1
160.007,1,1
160.007,0,2
160.011,2,1
160.011,1,1
160.015,1,1
160.015,2,2
160.015,2,2
160.019,2,2
160.019,2,2
160.023,2,1
160.023,1,1
160.027,1,2
160.027,2,2
160.027,1,1
160.031,1,2
160.031,3,3
160.036,2,1
160.036,0,0
160.04,1,1
160.04,2,2
160.04,1,1
160.044,1,1
160.044,1,1
160.048,1,2
160.048,2,2
160.052,2,2
160.052,2,2
160.052,2,2
160.056,1,1
160.056,2,1
160.06,1,0
160.06,0,1
160.064,1,0
160.064,0,1
160.064,2,4
160.068,4,2
160.068,1,1
160.072,0,0
160.072,1,1
160.077,1,2
160.077,1,1
160.077,1,1
160.081,1,1
160.081,1,2
160.085,2,2
160.085,1,1
160.089,2,2
160.089,2,3
160.089,2,2
160.093,2,1
160.093,1,1
160.097,2,1
160.097,1,1
160.097,1,1
160.101,2,2
160.101,1,1
160.105,1,1
160.105,1,1
160.109,1,1
160.109,1,1
160.109,1,1
160.113,1,1
160.113,1,1
160.118,1,1
160.118,1,1
160.122,1,0
160.122,0,0
160.122,2,3
160.126,2,1
160.126,1,2
160.13,2,3
160.13,3,3
160.134,1,1
160.134,0,0
160.134,1,2
160.138,3,2
160.138,1,0
160.142,0,0
160.142,0,1
160.146,2,3
160.146,3,3
160.146,3,2
160.15,2,2
160.15,2,1
160.154,1,1
160.154,1,1
160.158,1,1
160.158,0,0
160.158,0,0
160.163,1,1
160.163,1,1
160.167,2,1
160.167,1,1
160.171,2,2
160.171,2,2
160.171,2,2
160.175,1,1
160.175,1,2
160.179,1,1
160.179,2,2
160.183,2,1
160.183,1,1
160.183,0,0
160.187,1,2
160.187,2,3
160.191,2,2
160.191,2,2
160.191,2,1
160.195,1,1
160.195,1,1
160.199,1,0
160.199,0,1
160.204,1,1
160.204,2,1
160.204,1,1
160.208,2,2
160.208,2,2
160.212,2,2
160.212,2,2
160.216,2,1
160.216,1,1
160.216,1,1
160.22,1,2
160.22,1,1
160.224,1,1
160.224,0,0
160.228,0,1
160.228,2,4
160.228,4,5
160.232,4,2
160.232,0,0
160.236,0,0
160.236,0,0
160.24,1,1
160.24,1,0
160.24,1,1
160.244,2,2
160.244,2,2
160.249,1,1
160.249,1,1
160.253,2,2
160.253,2,2
160.253,2,2
160.257,2,2
160.257,3,2
160.261,2,2
160.261,1,1
160.265,1,1
160.265,1,0
160.265,0,1
160.269,1,2
160.269,2,3
160.273,1,1
160.273,1,1
160.277,1,1
160.277,1,2
160.277,2,2
160.281,2,1
160.281,1,0
160.285,0,0
160.285,1,2
160.285,2,2
160.29,3,3
160.29,2,2
160.294,2,1
160.294,1,1
160.298,1,2
160.298,3,3
160.298,1,1
160.302,0,1
160.302,1,1
160.306,2,2
160.306,2,2
160.31,2,1
160.31,1,1
160.31,1,1
160.314,1,1
160.314,0,1
160.318,1,0
160.318,1,1
160.322,3,6
160.322,5,1
160.322,0,-1
160.326,0,1
160.326,0,0
160.33,1,2
160.33,3,2
160.335,2,2
160.335,2,3
160.335,2,1
160.339,1,1
160.339,0,1
160.343,1,2
160.343,2,1
160.347,1,1
160.347,1,1
160.347,2,2
160.351,2,2
160.351,2,2
160.355,2,2
160.355,1,1
160.359,1,1
160.359,1,0
160.359,1,1
160.363,1,1
160.363,1,1
160.367,1,2
160.367,2,2
160.371,2,2
160.371,3,2
160.371,2,1
160.376,1,1
160.376,1,1
160.38,1,1
160.38,1,1
160.38,1,1
160.384,1,1
160.384,1,1
160.388,1,0
160.388,1,1
160.392,2,3
160.392,3,3
160.392,2,0
160.396,0,0
160.396,0,1
160.4,2,2
160.4,2,1
160.404,1,0
160.404,0,1
160.404,3,4
160.408,5,3
160.408,1,0
160.412,0,0
160.412,1,2
160.416,3,2
160.417,2,1
160.417,1,2
160.421,2,3
160.421,2,1
160.426,0,0
160.426,0,0
160.429,1,1
160.429,1,2
160.429,2,2
160.433,3,3
160.433,2,1
160.437,1,0
160.437,1,1
160.441,1,1
160.441,0,1
160.441,1,2
160.445,2,2
160.445,1,2
160.449,2,2
160.449,2,2
160.453,2,2
160.453,1,1
160.453,1,2
160.457,2,2
160.457,1,1
160.462,1,1
160.462,1,1
160.466,1,2
160.466,2,3
160.466,3,2
160.47,1,1
160.47,1,1
160.474,1,1
160.474,1,1
160.478,0,1
160.478,1,1
160.478,0,1
160.482,1,1
160.482,2,2
160.486,2,2
160.486,2,2
160.486,2,2
160.49,2,1
160.49,1,1
160.494,1,1
160.494,3,3
160.498,1,1
160.498,1,1
160.498,3,5
160.503,5,2
160.503,0,0
160.507,-1,0
160.507,0,1
160.511,2,2
160.511,3,3
160.511,2,2
160.515,2,2
160.515,1,0
160.519,0,0
160.519,1,2
160.523,2,1
160.523,1,1
160.523,1,1
160.527,2,2
160.527,3,2
160.531,2,2
160.531,1,2
160.535,2,3
160.535,3,3
160.535,2,1
160.539,1,0
160.539,0,0
160.544,0,1
160.544,1,1
160.548,2,2
160.548,2,2
160.548,2,2
160.552,2,2
160.552,2,2
160.556,1,2
160.556,2,2
160.56,1,1
160.56,2,2
160.56,2,2
160.564,2,2
160.564,2,1
160.568,1,1
160.568,2,2
160.572,2,2
160.572,2,2
160.572,1,1
160.576,1,1
160.576,2,2
160.58,2,2
160.58,1,1
160.58,1,0
160.584,0,0
160.584,2,5
160.589,6,3
160.589,1,0
160.593,0,1
160.593,1,1
160.593,1,1
160.597,1,1
160.597,0,1
160.601,1,1
160.601,0,1
160.605,0,1
160.605,1,2
160.605,2,1
160.609,1,1
160.609,2,2
160.613,2,3
160.613,3,2
160.617,2,1
160.617,1,1
160.617,1,1
160.621,2,1
160.621,0,0
160.625,0,0
160.625,1,2
160.63,2,2
160.63,2,3
160.63,3,2
160.634,1,1
160.634,1,1
160.638,0,0
160.638,1,1
160.642,2,2
160.642,1,0
160.642,1,1
160.646,2,2
160.646,2,2
160.65,2,2
160.65,2,2
160.654,2,2
160.654,1,1
160.654,0,1
160.658,1,1
160.658,1,2
160.662,2,2
160.662,2,2
160.662,2,2
160.666,2,1
160.666,1,1
160.67,2,2
160.67,2,2
160.675,2,2
160.675,2,1
160.675,0,0
160.679,0,1
160.679,3,6
160.683,6,2
160.683,0,0
160.687,0,0
160.687,1,2
160.687,2,3
160.691,2,1
160.691,1,1
160.695,0,1
160.695,1,1
160.699,1,1
160.699,1,2
160.699,2,2
160.703,2,2
160.703,1,2
160.707,2,1
160.707,1,2
160.711,2,3
160.711,2,2
160.711,1,1
160.715,0,0
160.715,1,1
160.72,1,1
160.72,2,2
160.724,2,2
160.724,2,2
160.724,2,2
160.728,1,1
160.728,1,1
160.732,2,2
160.732,2,2
160.736,1,1
160.736,1,2
160.736,2,2
160.74,2,2
160.74,2,2
160.744,2,1
160.744,1,1
160.748,1,1
160.748,1,1
160.748,1,1
160.752,1,2
160.752,2,2
160.757,2,2
160.757,2,2
160.757,3,2
160.761,2,1
160.761,1,0
160.765,0,0
160.765,0,0
160.769,1,1
160.769,1,2
160.769,2,3
160.773,3,2
160.773,1,0
160.777,0,0
160.777,2,5
160.781,5,4
160.781,2,0
160.781,0,0
160.785,0,0
160.785,0,0
160.789,1,1
160.789,2,2
160.793,2,2
160.793,2,2
160.793,2,2
160.797,2,1
160.797,0,0
160.801,1,1
160.801,1,1
160.806,1,2
160.806,2,3
160.806,3,2
160.81,1,1
160.81,2,3
160.814,2,2
160.814,1,1
160.818,1,1
160.818,1,1
160.818,1,1
160.822,1,0
160.822,0,1
160.826,1,1
160.826,1,2
160.83,2,2
160.83,2,2
160.83,2,2
160.834,2,2
160.834,2,1
160.838,1,1
160.838,1,1
160.842,1,1
160.842,0,1
160.842,1,1
160.847,1,2
160.847,2,2
160.851,3,2
160.851,1,1
160.851,1,1
160.855,2,2
160.855,1,1
160.859,1,1
160.859,1,0
160.863,0,0
160.863,0,1
160.863,2,3
160.867,2,0
160.867,0,1
160.871,3,4
160.871,6,4
160.875,3,0
160.875,0,0
160.875,0,1
160.879,2,2
160.879,1,1
160.883,1,1
160.883,1,1
160.887,2,2
160.888,2,2
160.888,3,2
160.892,2,1
160.892,1,1
160.896,1,1
160.896,1,1
160.9,0,1
160.9,1,1
160.9,2,1
160.904,1,1
160.904,1,1
160.908,1,2
160.908,3,4
160.912,3,2
160.912,1,0
160.912,0,0
160.916,1,2
160.916,2,2
160.92,1,1
160.92,1,1
160.924,1,1
160.924,2,2
160.924,1,1
160.928,1,1
160.928,2,3
160.933,4,2
160.933,1,1
160.937,0,0
160.937,1,1
160.937,1,1
160.941,1,2
160.941,2,2
160.945,2,2
160.945,1,1
160.945,1,0
160.949,0,1
160.949,3,6
160.953,6,2
160.953,1,0
160.957,0,0
160.957,1,1
160.957,0,0
160.961,0,1
160.961,0,0
160.965,1,1
160.965,2,2
160.969,1,2
160.969,2,2
160.969,2,2
160.973,3,2
160.974,1,2
160.978,1,0
160.978,0,0
160.982,1,2
160.982,2,2
160.982,2,2
160.986,2,1
160.986,1,1
160.99,1,1
160.99,2,2
160.994,2,2
160.994,1,1
160.994,1,2
160.998,3,2
160.998,2,2
161.002,1,1
161.002,1,1
161.006,1,1
161.006,1,1
161.006,1,2
161.01,2,2
161.01,2,3
161.014,2,2
161.015,1,0
161.019,0,0
161.019,1,3
161.019,4,2
161.023,0,0
161.023,0,0
161.027,1,2
161.027,3,3
161.027,3,1
161.031,1,1
161.031,1,1
161.035,1,0
161.035,1,1
161.039,2,2
161.039,1,0
161.039,0,1
161.043,1,2
161.043,2,2
161.047,2,1
161.047,1,1
161.051,2,2
161.051,2,2
161.051,2,2
161.055,2,2
161.055,1,1
161.06,1,1
161.06,0,1
161.064,1,1
161.064,1,1
161.064,2,2
161.068,2,2
161.068,2,2
161.072,2,2
161.072,1,1
161.076,1,1
161.076,1,0
161.076,1,1
161.08,1,1
161.08,1,2
161.084,2,2
161.084,2,2
161.088,3,1
161.088,1,0
161.088,1,2
161.092,2,2
161.092,2,1
161.096,1,1
161.096,1,3
161.1,3,2
161.1,2,1
161.1,0,0
161.105,1,0
161.105,0,1
161.109,2,3
161.109,4,3
161.113,2,0
161.113,0,0
161.113,1,1
161.117,1,1
161.117,1,1
161.121,1,1
161.121,1,2
161.121,2,2
161.125,2,2
161.125,2,3
161.129,2,1
161.129,1,1
161.133,1,1
161.133,1,1
161.133,0,0
161.137,1,1
161.137,1,2
161.141,2,2
161.141,2,1
161.146,1,1
161.146,1,1
161.146,1,2
161.15,3,3
161.15,3,1
161.154,1,0
161.154,1,1
161.158,1,2
161.158,1,1
161.158,1,2
161.162,2,2
161.162,2,2
161.166,1,1
161.166,2,2
161.17,2,2
161.17,2,2
161.17,1,1
161.174,1,1
161.174,1,3
161.178,3,3
161.178,2,0
161.182,0,0
161.182,0,1
161.182,1,2
161.186,2,2
161.186,3,2
161.191,2,2
161.191,2,2
161.195,1,0
161.195,0,1
161.195,1,2
161.199,3,1
161.199,1,1
161.203,1,2
161.203,2,2
161.207,1,2
161.207,2,2
161.207,2,2
161.211,2,1
161.211,1,0
161.215,1,1
161.215,2,2
161.219,2,2
161.219,2,2
161.219,1,1
161.223,1,1
161.223,1,1
161.227,1,1
161.227,1,2
161.232,2,2
161.232,2,2
161.232,2,3
161.236,2,2
161.236,1,1
161.24,0,0
161.24,1,1
161.24,1,1
161.244,0,1
161.244,0,0
161.248,0,1
161.248,1,2
161.252,3,5
161.252,6,3
161.252,1,0
161.256,0,0
161.256,1,2
161.26,2,1
161.26,0,0
161.264,0,1
161.264,1,1
161.264,1,1
161.268,2,2
161.268,2,1
161.273,1,1
161.273,1,2
161.277,3,4
161.277,3,2
161.277,1,0
161.281,0,0
161.281,0,1
161.285,2,2
161.285,2,2
161.289,2,1
161.289,1,1
161.289,1,2
161.293,2,2
161.293,2,2
161.297,2,2
161.297,2,2
161.301,1,1
161.301,1,1
161.301,1,1
161.305,0,1
161.305,2,2
161.309,2,2
161.309,2,1
161.313,1,1
161.314,1,1
161.314,1,1
161.318,0,1
161.318,1,1
161.322,1,2
161.322,3,3
161.322,2,1
161.326,0,0
161.326,0,1
161.33,1,2
161.33,2,3
161.334,3,2
161.334,2,2
161.334,1,1
161.338,1,1
161.338,0,0
161.342,0,0
161.342,0,1
161.346,2,3
161.346,3,3
161.346,2,2
161.35,2,3
161.35,2,1
161.354,1,0
161.354,0,1
161.359,2,2
161.359,2,1
161.359,0,0
161.363,1,1
161.363,1,1
161.367,2,2
161.367,2,2
161.371,2,2
161.371,3,2
161.371,1,1
161.375,1,1
161.375,0,0
161.379,1,1
161.379,1,2
161.383,3,3
161.383,1,0
161.383,1,0
161.387,1,1
161.387,2,3
161.391,3,2
161.391,2,2
161.395,1,0
161.395,0,0
161.395,2,1
161.399,1,1
161.399,1,1
161.404,1,0
161.404,0,1
161.408,3,5
161.408,6,4
161.408,0,0
161.412,0,0
161.412,0,0
161.416,1,1
161.416,2,2
161.416,2,1
161.42,1,0
161.42,0,1
161.424,2,1
161.424,1,0
161.428,0,1
161.428,2,2
161.428,3,3
161.432,3,3
161.432,3,1
161.436,1,1
161.436,1,1
161.44,0,1
161.44,1,1
161.44,1,2
161.445,2,2
161.445,2,2
161.449,2,2
161.449,1,2
161.453,2,3
161.453,2,2
161.453,1,1
161.457,0,0
161.457,0,1
161.461,1,1
161.461,1,2
161.465,3,2
161.465,2,1
161.465,1,1
161.469,2,2
161.469,2,2
161.473,2,2
161.473,2,1
161.477,1,1
161.477,1,1
161.477,1,1
161.481,1,2
161.482,2,2
161.486,2,2
161.486,2,2
161.49,2,2
161.49,1,1
161.49,0,1
161.494,1,1
161.494,0,0
161.498,1,2
161.498,3,7
161.502,6,2
161.502,0,-1
161.502,0,0
161.506,0,1
161.506,2,2
161.51,2,1
161.51,1,1
161.514,0,1
161.514,1,1
161.514,2,2
161.518,1,1
161.518,1,1
161.522,1,1
161.522,1,1
161.522,2,2
161.526,2,2
161.526,2,2
161.531,3,1
161.531,1,1
161.535,1,1
161.535,1,1
161.535,1,1
161.539,1,1
161.539,0,0
161.543,1,0
161.543,0,0
161.547,2,2
161.547,3,4
161.547,4,3
161.551,2,1
161.551,0,0
161.555,0,0
161.555,1,2
161.559,3,3
161.559,1,0
161.559,0,1
161.563,2,3
161.563,4,2
161.567,0,0
161.567,1,1
161.571,2,2
161.572,1,0
161.572,0,1
161.576,3,5
161.576,6,4
161.58,3,1
161.58,0,0
161.584,0,0
161.584,1,2
161.584,2,2
161.588,2,3
161.588,2,2
161.592,0,0
161.592,1,2
161.596,1,1
161.596,0,0
161.596,1,0
161.6,0,0
161.6,0,4
161.604,9,12
161.604,11,5
161.608,-2,-9
161.608,-9,-3
161.608,1,6
161.612,7,4
161.612,-1,-7
161.617,-6,0
161.617,7,14
161.621,15,13
161.621,7,1
161.621,-1,0
161.625,0,-1
161.625,-5,-12
161.629,-12,-5
161.629,0,6
161.633,5,0
161.633,2,13
161.633,22,29
161.637,20,2
161.637,-16,-30
161.641,-28,-18
161.641,-4,10
161.645,13,13
161.645,11,8
161.649,10,17
161.649,20,12
161.649,0,-9
161.653,-14,-17
161.653,-21,-18
161.658,-7,2
161.658,9,12
161.662,15,17
161.662,11,-3
161.666,-10,-10
161.666,-6,-1
161.666,0,8
161.67,17,23
161.67,24,20
161.674,11,-1
161.674,-12,-17
161.678,-14,-8
161.678,-3,-1
161.682,0,4
161.682,7,4
161.682,-2,-6
161.686,-7,-3
161.686,1,7
161.69,11,8
161.69,3,0
161.694,1,4
161.694,4,7
161.694,11,9
161.698,6,1
161.698,-1,-3
161.703,-2,-2
161.703,-3,-2
161.707,-1,0
161.707,0,0
161.707,1,2
161.711,3,5
161.711,6,5
161.715,4,2
161.715,2,4
161.719,4,4
161.719,3,0
161.719,-2,-3
161.723,-2,-3
161.723,-2,-2
161.727,-2,0
161.727,1,3
161.731,5,7
161.731,8,8
161.731,8,7
161.735,5,3
161.735,1,0
161.739,0,-2
161.739,-3,-3
161.744,-2,-1
161.744,-1,1
161.744,2,3
161.748,3,3
161.748,4,4
161.752,5,3
161.752,2,3
161.752,5,8
161.756,7,4
161.756,0,-3
161.76,-7,-7
161.76,-4,-2
161.764,1,3
161.764,6,9
161.764,9,7
161.768,4,1
161.768,0,-1
161.772,-3,-5
161.772,-6,-5
161.776,-4,-1
161.776,0,5
161.78,9,10
161.78,10,9
161.78,7,5
161.785,2,1
161.785,0,-1
161.789,-2,0
161.789,2,3
161.789,2,2
161.793,1,-1
161.793,-4,-6
161.797,-4,-1
161.797,1,0
161.801,1,4
161.801,5,6
161.801,6,6
161.805,7,4
161.805,1,0
161.809,-1,0
161.809,0,3
161.813,6,7
161.813,5,3
161.813,1,0
161.817,0,0
161.817,0,1
161.821,3,2
161.821,1,0
161.826,0,0
161.826,0,0
161.826,0,1
161.83,2,3
161.83,3,2
161.834,2,1
161.834,1,1
161.838,0,1
161.838,0,0
161.838,1,0
161.842,1,1
161.842,1,2
161.846,4,4
161.846,4,4
161.85,4,4
161.85,2,2
161.85,2,1
161.854,0,-1
161.854,-1,-1
161.858,0,0
161.858,2,3
161.862,3,3
161.862,2,2
161.862,2,2
161.866,2,2
161.866,1,2
161.87,2,2
161.871,2,1
161.875,0,0
161.875,0,1
161.875,2,4
161.879,4,5
161.879,3,2
161.883,1,0
161.883,0,1
161.887,1,1
161.887,1,0
161.887,0,0
161.891,0,0
161.891,2,2
161.895,2,2
161.895,3,2
161.895,2,3
161.899,3,3
161.899,1,1
161.903,2,2
161.903,2,2
161.907,1,0
161.907,-1,0
161.907,0,1
161.911,2,3
161.911,3,3
161.916,2,2
161.916,2,2
161.92,2,2
161.92,1,0
161.92,0,0
161.924,0,0
161.924,0,0
161.928,2,3
161.928,5,5
161.932,5,4
161.932,3,2
161.932,2,1
161.936,1,1
161.936,0,0
161.94,0,0
161.94,0,0
161.944,1,2
161.944,2,1
161.944,1,1
161.948,1,2
161.948,2,2
161.952,2,2
161.952,4,6
161.957,4,1
161.957,0,-1
161.957,0,0
161.961,0,1
161.961,2,1
161.965,1,0
161.965,0,1
161.969,1,2
161.969,3,5
161.969,4,4
161.973,2,3
161.973,3,1
161.977,0,0
161.977,0,0
161.977,0,1
161.981,1,1
161.981,2,2
161.985,2,2
161.985,2,2
161.989,2,2
161.989,2,2
161.989,1,1
161.993,1,1
161.993,1,1
161.997,1,2
161.997,3,3
162.002,1,1
162.002,2,3
162.002,3,2
162.006,1,0
162.006,0,0
162.01,1,1
162.01,1,0
162.014,1,2
162.014,2,3
162.014,1,1
162.018,1,1
162.018,1,1
162.022,1,0
162.022,0,0
162.026,1,4
162.026,4,3
162.026,2,0
162.03,0,1
162.03,3,3
162.034,4,3
162.034,2,1
162.038,1,1
162.038,1,1
162.038,1,0
162.043,0,1
162.043,1,1
162.047,1,0
162.047,1,2
162.051,2,2
162.051,3,4
162.051,3,3
162.055,2,1
162.055,0,0
162.059,0,0
162.059,0,1
162.063,2,2
162.063,2,1
162.063,1,1
162.067,1,2
162.067,3,3
162.071,3,1
162.071,1,1
162.071,1,0
162.075,1,1
162.075,1,2
162.079,2,2
162.079,1,1
162.084,1,2
162.084,2,2
162.084,1,2
162.088,2,2
162.088,1,1
162.092,0,1
162.092,2,3
162.096,2,1
162.096,1,3
162.096,3,3
162.1,2,1
162.1,1,0
162.104,0,0
162.104,0,1
162.108,1,1
162.108,1,1
162.108,2,2
162.112,2,1
162.112,1,1
162.116,2,2
162.116,1,0
162.12,1,2
162.12,2,2
162.12,2,2
162.124,2,2
162.124,3,2
162.129,2,1
162.129,1,0
162.133,0,0
162.133,1,2
162.133,2,2
162.137,2,1
162.137,1,1
162.141,1,0
162.141,0,1
162.145,2,2
162.145,3,2
162.145,2,2
162.149,2,2
162.149,1,1
162.153,1,1
162.153,0,1
162.153,1,1
162.157,1,1
162.157,1,1
162.161,2,2
162.161,3,3
162.165,2,2
162.165,2,2
162.165,1,1
162.17,1,1
162.17,0,0
162.174,0,1
162.174,1,2
162.178,3,3
162.178,2,1
162.178,0,0
162.182,0,0
162.182,1,2
162.186,3,3
162.186,3,3
162.19,2,2
162.19,2,2
162.19,2,1
162.194,0,0
162.194,1,1
162.198,1,1
162.198,0,1
162.202,0,0
162.202,0,2
162.202,4,4
162.206,2,1
162.206,1,1
162.21,1,0
162.211,0,1
162.215,0,0
162.215,1,2
162.215,3,3
162.219,3,1
162.219,1,1
162.223,0,1
162.223,1,2
162.227,2,1
162.227,1,1
162.227,2,2
162.231,2,2
162.231,2,1
162.235,1,1
162.235,2,2
162.235,2,2
162.239,2,2
162.239,2,1
162.243,0,0
162.243,0,1
162.247,3,3
162.247,4,4
162.247,4,2
162.251,0,0
162.251,0,0
162.255,0,1
162.255,2,3
162.26,2,2
162.26,2,1
162.26,0,0
162.264,0,0
162.264,1,2
162.268,2,2
162.268,2,2
162.272,2,2
162.272,2,2
162.272,2,2
162.276,1,1
162.276,2,2
162.28,1,0
162.28,0,1
162.284,0,0
162.284,1,1
162.284,2,2
162.288,2,2
162.288,2,2
162.292,2,3
162.292,2,2
162.296,2,1
162.296,0,0
162.297,0,1
162.301,1,1
162.301,1,1
162.305,1,2
162.305,2,3
162.309,2,2
162.309,2,2
162.309,2,1
162.313,2,1
162.313,1,1
162.317,1,1
162.317,0,0
162.321,0,0
162.321,1,1
162.321,4,6
162.325,5,3
162.325,0,0
162.329,0,1
162.329,2,3
162.329,2,1
162.333,1,1
162.333,1,1
162.337,1,0
162.337,1,1
162.341,1,1
162.342,0,1
162.342,1,2
162.346,2,1
162.346,1,1
162.35,2,2
162.35,2,1
162.354,1,1
162.354,2,2
162.354,2,3
162.358,2,1
162.358,1,0
162.362,1,1
162.362,1,2
162.366,2,2
162.366,1,2
162.366,2,2
162.37,2,2
162.37,2,1
162.374,1,1
162.374,2,2
162.378,2,1
162.378,0,0
162.378,0,1
162.382,1,1
162.382,1,1
162.387,2,3
162.387,3,2
162.391,1,1
162.391,0,0
162.391,0,1
162.395,2,2
162.395,2,2
162.399,2,1
162.399,1,0
162.403,0,1
162.403,3,6
162.403,4,2
162.407,0,0
162.407,0,1
162.411,2,3
162.411,2,3
162.411,2,1
162.415,0,0
162.415,0,1
162.419,1,1
162.419,1,1
162.423,1,1
162.423,1,1
162.423,2,2
162.428,2,2
162.428,1,2
162.432,2,3
162.432,2,2
162.436,1,0
162.436,1,1
162.436,1,1
162.44,2,2
162.44,1,1
162.444,0,0
162.444,0,1
162.448,1,1
162.448,1,2
162.448,2,2
162.452,2,2
162.452,2,2
162.456,2,2
162.456,2,2
162.46,2,1
162.46,1,1
162.46,1,1
162.464,0,0
162.464,0,1
162.468,1,1
162.469,1,1
162.473,2,2
162.473,3,2
162.473,2,2
162.477,2,2
162.477,2,1
162.481,1,1
162.481,1,1
162.485,1,1
162.485,1,1
162.485,1,0
162.489,1,1
162.489,2,4
162.493,4,3
162.493,1,0
162.497,0,0
162.497,1,1
162.497,1,1
162.501,1,1
162.501,1,1
162.505,2,2
162.505,2,2
162.509,2,2
162.509,1,1
162.509,1,1
162.513,2,2
162.514,2,2
162.518,3,2
162.518,2,2
162.518,1,0
162.522,0,0
162.522,1,1
162.526,1,1
162.526,1,1
162.53,2,2
162.53,2,1
162.53,1,1
162.534,2,2
162.534,2,2
162.538,3,2
162.538,1,1
162.542,1,0
162.542,1,1
162.542,0,1
162.546,1,1
162.546,1,2
162.55,2,2
162.55,1,1
162.555,2,3
162.555,3,2
162.555,2,1
162.559,0,0
162.559,0,1
162.563,1,1
162.563,1,1
162.567,1,1
162.567,2,2
162.567,2,2
162.571,3,3
162.571,2,1
162.575,1,1
162.575,1,1
162.579,0,0
162.579,0,0
162.579,1,3
162.583,4,3
162.583,2,1
162.587,0,0
162.587,0,2
162.591,2,1
162.591,1,2
162.591,2,1
162.595,1,1
162.595,0,0
162.6,0,0
162.6,2,3
162.604,4,2
162.604,1,1
162.604,1,0
162.608,1,1
162.608,2,2
162.612,2,2
162.612,2,2
162.612,2,1
162.616,1,1
162.616,1,1
162.62,1,1
162.62,1,1
162.624,1,1
162.624,0,1
162.624,2,2
162.628,2,2
162.628,2,2
162.632,1,1
162.632,1,1
162.636,1,1
162.636,1,2
162.636,2,2
162.641,2,1
162.641,1,1
162.645,1,2
162.645,2,2
162.649,2,2
162.649,2,2
162.649,2,2
162.653,3,3
162.653,2,0
162.657,0,0
162.657,0,1
162.661,1,2
162.661,2,2
162.661,2,2
162.665,2,2
162.665,1,1
162.669,1,1
162.669,1,3
162.673,5,4
162.673,3,0
162.673,0,0
162.677,0,0
162.677,0,1
162.681,1,2
162.681,2,2
162.686,2,2
162.686,2,2
162.686,2,2
162.69,1,1
162.69,1,1
162.694,2,2
162.694,2,3
162.698,2,1
162.698,1,0
162.698,1,1
162.702,2,2
162.702,2,1
162.706,1,1
162.706,2,3
162.706,3,2
162.71,1,1
162.71,0,0
162.714,1,1
162.714,2,2
162.718,3,2
162.718,1,0
162.718,1,2
162.722,2,2
162.722,1,0
162.726,1,1
162.726,0,1
162.731,1,2
162.731,2,2
162.731,3,2
162.735,2,1
162.735,1,0
162.739,0,1
162.739,1,2
162.743,2,2
162.743,2,2
162.743,1,1
162.747,1,1
162.747,1,1
162.751,2,3
162.751,3,2
162.755,1,0
162.755,1,1
162.755,1,1
162.759,2,3
162.759,3,1
162.763,0,0
162.763,1,2
162.767,3,2
162.768,2,2
162.768,1,1
162.772,1,1
162.772,0,1
162.776,1,1
162.776,1,2
162.78,3,3
162.78,1,1
162.78,1,1
162.784,1,2
162.784,3,3
162.788,2,1
162.788,1,1
162.792,1,1
162.792,1,0
162.792,0,1
162.796,1,1
162.796,2,2
162.8,2,2
162.8,2,2
162.804,1,1
162.804,2,2
162.804,2,2
162.808,2,2
162.808,2,1
162.813,1,1
162.813,1,1
162.813,2,2
162.817,1,1
162.817,1,1
162.821,0,0
162.821,1,1
162.825,1,2
162.825,2,1
162.825,1,2
162.829,3,3
162.829,2,2
162.833,1,1
162.833,0,0
162.837,1,1
162.837,2,2
162.837,2,2
162.841,2,1
162.841,0,0
162.845,0,2
162.845,4,5
162.849,5,3
162.849,2,1
162.849,1,1
162.853,1,1
162.853,1,1
162.858,0,0
162.858,0,2
162.862,2,2
162.862,1,1
162.862,1,0
162.866,1,1
162.866,1,2
162.87,2,2
162.87,2,2
162.874,2,2
162.874,2,2
162.874,2,2
162.878,1,2
162.878,2,2
162.882,2,1
162.882,1,1
162.886,1,1
162.886,1,1
162.886,2,2
162.89,3,3
162.89,1,1
162.894,1,1
162.894,1,1
162.898,1,1
162.898,0,1
162.899,1,1
162.903,1,1
162.903,1,1
162.907,2,2
162.907,2,2
162.907,2,2
162.911,3,2
162.911,2,1
162.915,1,0
162.915,0,1
162.919,1,2
162.919,2,2
162.919,1,1
162.923,0,0
162.923,1,2
162.927,3,3
162.927,2,0
162.931,0,0
162.931,2,5
162.931,5,3
162.935,1,0
162.935,0,1
162.939,1,1
162.94,1,2
162.944,2,1
162.944,1,1
162.944,1,1
162.948,2,3
162.948,3,2
162.952,2,1
162.952,0,0
162.956,1,2
162.956,3,2
162.956,2,2
162.96,1,0
162.96,0,0
162.964,1,1
162.964,2,2
162.968,2,1
162.968,1,1
162.968,2,2
162.972,2,2
162.972,2,2
162.976,2,2
162.976,2,1
162.98,1,1
162.98,0,1
162.98,1,2
162.985,2,3
162.985,2,2
162.989,1,1
162.989,1,1
162.993,1,1
162.993,1,1
162.993,1,1
162.997,1,0
162.997,1,2
163.001,2,2
163.001,2,1
163.001,2,2
163.005,1,1
163.005,1,2
163.009,2,3
163.009,2,2
163.013,2,1
163.013,1,1
163.013,1,1
163.017,1,0
163.017,0,0
163.021,2,5
163.021,4,3
163.026,1,0
163.026,0,0
163.026,0,1
163.03,1,2
163.03,2,2
163.034,2,1
163.034,1,0
163.038,0,0
163.038,1,2
163.038,3,2
163.042,1,1
163.042,1,2
163.046,2,3
163.046,3,2
163.05,2,1
163.05,1,1
163.05,0,0
163.054,1,1
163.054,1,1
163.058,1,1
163.058,1,1
163.062,1,1
163.062,2,2
163.062,1,1
163.066,1,2
163.066,2,3
163.071,3,2
163.071,1,1
163.075,0,0
163.075,1,1
163.075,2,2
163.079,2,2
163.079,1,1
163.083,1,2
163.083,2,2
163.087,2,2
163.087,2,2
163.087,2,2
163.091,2,2
163.091,1,1
163.095,0,0
163.095,0,1
163.095,1,1
163.099,1,0
163.099,0,2
163.103,3,4
163.103,5,3
163.107,2,0
163.107,0,1
163.107,1,1
163.111,1,1
163.112,1,1
163.116,1,1
163.116,1,0
163.12,1,2
163.12,2,2
163.12,1,1
163.124,2,2
163.124,2,2
163.128,1,1
163.128,2,2
163.132,2,2
163.132,2,2
163.132,2,2
163.136,1,1
163.136,1,1
163.14,1,1
163.14,1,0
163.144,1,1
163.144,2,2
163.144,3,2
163.148,2,1
163.148,1,1
163.153,1,0
163.153,0,2
163.157,1,1
163.157,1,1
163.157,1,1
163.161,1,1
163.161,1,1
163.165,2,3
163.165,3,3
163.169,1,1
163.169,0,1
163.169,1,1
163.173,1,2
163.173,2,1
163.177,1,0
163.177,0,1
163.181,2,2
163.181,4,5
163.181,4,2
163.185,0,0
163.185,0,0
163.189,1,2
163.189,2,2
163.189,2,2
163.193,1,1
163.194,2,3
163.198,2,1
163.198,0,1
163.202,1,1
163.202,1,2
163.202,2,2
163.206,2,2
163.206,2,2
163.21,1,2
163.21,2,3
163.214,3,1
163.214,0,0
163.214,0,0
163.218,0,0
163.218,2,2
163.222,2,2
163.222,2,2
163.226,2,1
163.226,1,1
163.226,1,1
163.23,1,2
163.23,3,3
163.234,2,2
163.234,1,1
163.238,1,2
163.238,2,2
163.238,2,2
163.243,2,2
163.243,1,1
163.247,1,1
163.247,1,1
163.251,1,2
163.251,2,3
163.251,2,2
163.255,2,1
163.255,1,1
163.259,1,1
163.259,0,1
163.263,0,1
163.263,1,1
163.263,1,1
163.267,1,3
163.267,4,3
163.271,1,1
163.271,1,0
163.275,1,1
163.275,2,2
163.275,2,2
163.279,2,1
163.279,1,1
163.284,0,0
163.284,1,1
163.284,1,1
163.288,1,2
163.288,2,2
163.292,2,2
163.292,2,2
163.296,2,2
163.296,1,1
163.296,1,1
163.3,0,1
163.3,2,2
163.304,2,1
163.304,1,1
163.308,1,2
163.308,2,2
163.308,2,2
163.312,3,2
163.312,3,2
163.316,1,1
163.316,0,0
163.32,0,1
163.32,0,0
163.32,0,1
163.324,2,2
163.324,3,3
163.329,2,2
163.329,3,3
163.333,2,2
163.333,1,1
163.333,0,0
163.337,1,1
163.337,1,1
163.341,1,2
163.341,2,3
163.345,3,1
163.345,1,0
163.345,1,2
163.349,2,2
163.349,1,0
163.353,0,1
163.353,2,4
163.357,4,2
163.357,1,0
163.357,0,0
163.361,0,1
163.361,0,0
163.365,0,2
163.365,2,3
163.365,2,2
163.37,2,3
163.37,3,2
163.374,2,2
163.374,2,2
163.378,3,2
163.378,1,1
163.378,0,1
163.382,1,1
163.382,0,1
163.386,1,2
163.386,2,3
163.39,2,2
163.39,1,1
163.39,0,0
163.394,0,2
163.394,4,3
163.398,1,0
163.398,0,1
163.402,1,1
163.402,2,1
163.402,1,1
163.406,1,1
163.406,2,2
163.411,2,2
163.411,2,2
163.415,2,2
163.415,2,2
163.415,1,1
163.419,0,0
163.419,1,1
163.423,2,2
163.423,2,2
163.427,2,1
163.427,1,1
163.427,2,2
163.431,2,3
163.431,2,1
163.435,0,0
163.435,0,2
163.439,3,4
163.439,4,3
163.439,2,1
163.443,1,0
163.443,0,0
163.447,0,1
163.447,1,2
163.451,2,2
163.451,2,2
163.451,2,2
163.456,2,1
163.456,1,1
163.46,2,2
163.46,1,1
163.464,2,2
163.464,2,1
163.464,1,2
163.468,3,3
163.468,1,1
163.472,1,1
163.472,1,1
163.472,1,1
163.476,1,1
163.476,1,0
163.48,1,1
163.48,2,2
163.484,2,2
163.484,2,2
163.484,1,1
163.488,1,2
163.488,2,2
163.492,3,2
163.492,2,1
163.497,1,0
163.497,0,1
163.497,1,2
163.501,2,2
163.501,1,2
163.505,2,2
163.505,1,1
163.509,2,2
163.509,2,2
163.509,2,2
163.513,2,2
163.513,1,1
163.517,1,1
163.517,1,1
163.521,0,0
163.521,0,0
163.521,0,1
163.525,4,6
163.525,6,3
163.529,0,0
163.529,0,2
163.533,2,2
163.533,2,1
163.533,1,1
163.537,1,1
163.537,0,0
163.542,0,0
163.542,0,1
163.546,1,1
163.546,2,4
163.546,4,4
163.55,3,1
163.55,1,0
163.554,1,2
163.554,1,1
163.554,1,0
163.558,1,1
163.558,2,2
163.562,2,2
163.562,2,1
163.566,1,1
163.566,1,2
163.566,2,3
163.57,2,2
163.57,1,1
163.574,1,1
163.574,1,1
163.578,1,0
163.579,0,1
163.579,1,1
163.583,0,0
163.583,2,2
163.587,3,2
163.587,2,2
163.591,2,3
163.591,3,2
163.591,1,1
163.595,1,1
163.595,0,0
163.599,1,2
163.599,2,1
163.603,0,0
163.603,0,2
163.603,3,7
163.607,6,3
163.607,0,0
163.611,0,0
163.611,0,0
163.615,0,2
163.615,2,2
163.615,1,0
163.619,0,1
163.619,2,2
163.623,2,1
163.624,1,1
163.628,2,2
163.628,2,2
163.628,2,2
163.632,3,2
163.632,2,1
163.636,1,1
163.636,1,1
163.64,1,1
163.64,0,0
163.64,1,1
163.644,1,1
163.644,1,2
163.648,2,2
163.648,2,2
163.648,2,2
163.652,2,2
163.652,2,1
163.656,1,2
163.656,2,1
163.66,0,0
163.66,1,1
163.66,1,2
163.664,2,2
163.664,2,2
163.669,2,2
163.669,2,2
163.673,2,1
163.673,0,1
163.673,1,1
163.677,2,1
163.677,1,1
163.681,1,2
163.681,2,2
163.685,1,1
163.685,3,5
163.685,5,1
163.689,0,0
163.689,0,1
163.693,1,1
163.693,1,1
163.697,0,1
163.697,1,1
163.697,2,2
163.701,3,2
163.701,2,1
163.705,1,1
163.705,2,2
163.709,2,2
163.71,1,2
163.71,2,2
163.714,2,2
163.714,2,1
163.718,1,2
163.718,2,2
163.722,2,1
163.722,1,2
163.722,2,1
163.726,1,2
163.726,2,2
163.73,2,1
163.73,2,2
163.734,2,2
163.734,2,1
163.734,1,1
163.738,2,3
163.738,2,2
163.742,1,0
163.742,0,0
163.742,1,2
163.746,2,2
163.746,2,2
163.75,2,2
163.75,2,2
163.755,2,1
163.755,1,1
163.755,1,0
163.759,1,1
163.759,1,1
163.763,1,1
163.763,1,2
163.767,2,2
163.767,2,2
163.767,2,2
163.771,2,2
163.771,1,1
163.775,0,0
163.775,2,5
163.779,5,2
163.779,0,0
163.779,0,0
163.783,1,2
163.783,2,2
163.787,1,1
163.787,1,1
163.791,1,2
163.791,2,2
163.791,2,2
163.795,2,1
163.796,1,2
163.8,2,2
163.8,1,1
163.804,2,2
163.804,3,2
163.804,1,1
163.808,2,1
163.808,1,1
163.812,1,1
163.812,1,1
163.816,1,1
163.816,0,1
163.816,1,1
163.82,1,0
163.82,1,1
163.824,1,1
163.824,1,2
163.828,3,3
163.828,3,2
163.828,1,1
163.832,1,1
163.832,2,1
163.836,1,1
163.836,1,1
163.836,0,0
163.841,1,1
163.841,1,2
163.845,2,2
163.845,2,2
163.849,2,2
163.849,2,2
163.849,2,1
163.853,2,1
163.853,1,1
163.857,1,1
163.857,0,1
163.861,1,1
163.861,1,1
163.861,1,1
163.865,2,1
163.865,1,0
163.869,2,5
163.869,4,3
163.873,1,1
163.873,1,1
163.873,0,0
163.877,0,1
163.877,2,3
163.882,2,2
163.882,1,1
163.886,1,1
163.886,1,1
163.886,1,2
163.89,2,2
163.89,2,3
163.894,3,2
163.894,1,1
163.898,1,1
163.898,1,0
163.898,0,0
163.902,1,2
163.902,2,2
163.906,1,2
163.906,2,3
163.91,1,1
163.91,1,2
163.91,2,1
163.914,1,1
163.914,1,1
163.918,2,2
163.918,2,2
163.922,2,2
163.922,1,1
163.922,1,1
163.927,1,1
163.927,2,3
163.931,3,2
163.931,1,1
163.931,1,1
163.935,1,2
163.935,2,1
163.939,1,1
163.939,0,0
163.943,1,1
163.943,1,1
163.943,1,1
163.947,1,2
163.947,3,3
163.951,2,2
163.951,2,1
163.955,1,1
163.955,1,0
163.955,1,1
163.959,1,0
163.959,0,1
163.963,3,5
163.963,5,2
163.968,1,0
163.968,0,1
163.968,1,1
163.972,1,1
163.972,2,2
163.976,1,1
163.976,0,0
163.98,0,0
163.98,0,1
163.98,1,2
163.984,2,2
163.984,2,2
163.988,2,2
163.988,2,2
163.992,2,2
163.992,2,2
163.992,1,1
163.996,0,0
163.996,1,1
164,2,2
164,2,2
164.004,2,2
164.004,2,1
164.004,1,1
164.008,1,1
164.009,1,1
164.013,1,1
164.013,1,1
164.017,1,1
164.017,1,0
164.017,1,1
164.021,1,1
164.021,1,1
164.025,1,1
164.025,2,2
164.025,3,3
164.029,2,2
164.029,2,1
164.033,1,0
164.033,0,0
164.037,1,1
164.037,1,1
164.037,2,2
164.041,2,1
164.042,1,1
164.045,1,2
164.045,2,3
164.05,3,1
164.05,1,1
164.05,1,1
164.054,1,1
164.054,1,1
164.058,1,0
164.058,1,0
164.062,0,0
164.062,3,4
164.062,5,3
164.066,2,1
164.066,0,0
164.07,0,1
164.07,1,1
164.074,1,1
164.074,1,1
164.074,1,1
164.078,1,1
164.078,1,2
164.082,2,2
164.082,1,1
164.086,1,2
164.086,3,4
164.086,3,2
164.09,1,0
164.09,0,0
164.095,1,2
164.095,1,1
164.099,0,0
164.099,2,2
164.099,2,1
164.103,1,1
164.103,1,1
164.107,1,2
164.107,2,2
164.107,2,2
164.111,2,2
164.111,1,1
164.115,1,1
164.115,2,2
164.119,1,1
164.119,1,1
164.119,1,1
164.123,1,1
164.123,1,1
164.127,2,3
164.127,4,3
164.131,2,1
164.131,1,0
164.131,0,0
164.135,1,0
164.135,0,1
164.14,1,2
164.14,2,2
164.144,2,2
164.144,1,1
164.144,2,2
164.148,2,2
164.148,2,2
164.152,1,1
164.152,1,1
164.156,1,1
164.156,1,2
164.156,2,2
164.16,2,1
164.16,1,0
164.164,1,1
164.164,2,5
164.168,4,2
164.168,0,-1
164.168,0,1
164.172,2,3
164.172,2,2
164.177,2,1
164.177,1,0
164.181,0,0
164.181,2,2
164.181,2,1
164.185,1,1
164.185,1,1
164.189,2,2
164.189,3,2
164.193,2,1
164.193,1,1
164.193,2,2
164.197,3,2
164.197,1,1
164.201,0,1
164.201,1,1
164.205,1,1
164.205,2,3
164.205,3,2
164.209,1,1
164.209,1,1
164.213,1,1
164.213,1,0
164.213,1,1
164.217,2,2
164.217,2,2
164.221,1,1
164.222,2,2
164.226,2,2
164.226,3,2
164.226,2,2
164.23,1,1
164.23,0,0
164.234,1,1
164.234,0,1
164.238,1,1
164.238,1,2
164.238,2,2
164.242,2,2
164.242,2,2
164.246,2,2
164.246,2,1
164.25,1,1
164.25,1,1
164.25,0,1
164.254,1,1
164.254,2,1
164.258,0,0
164.258,1,2
164.262,4,6
164.262,4,2
164.262,0,0
164.266,0,0
164.267,1,1
164.271,1,2
164.271,2,1
164.275,1,1
164.275,1,1
164.275,1,1
164.279,1,0
164.279,0,1
164.283,1,1
164.283,1,2
164.287,2,2
164.287,2,2
164.287,2,2
164.291,3,1
164.291,1,1
164.295,1,1
164.295,0,1
164.299,1,1
164.299,1,1
164.299,1,2
164.303,2,2
164.303,2,2
164.307,1,2
164.307,2,2
164.307,2,2
164.312,2,2
164.312,1,0
164.316,0,0
164.316,2,1
164.32,1,1
164.32,1,1
164.32,1,1
164.324,1,2
164.324,2,2
164.328,2,2
164.328,3,1
164.332,1,1
164.332,0,1
164.332,2,2
164.336,2,2
164.336,1,1
164.34,1,1
164.34,1,2
164.344,1,1
164.344,0,0
164.344,1,1
164.348,0,0
164.348,1,1
164.353,2,2
164.353,3,5
164.357,3,1
164.357,0,0
164.357,1,1
164.361,1,1
164.361,2,2
164.365,3,2
164.365,2,1
164.369,1,1
164.369,2,2
164.369,2,2
164.373,2,2
164.373,2,1
164.377,1,1
164.377,0,1
164.381,1,2
164.381,1,1
164.381,2,1
164.385,1,2
164.385,3,2
164.389,2,2
164.389,2,1
164.393,1,1
164.394,2,3
164.394,2,1
164.398,1,1
164.398,1,1
164.402,0,0
164.402,1,1
164.402,1,2
164.406,3,3
164.406,2,1
164.41,1,1
164.41,1,1
164.414,1,1
164.414,1,1
164.414,0,1
164.418,1,1
164.418,0,1
164.422,3,3
164.422,3,2
164.426,1,0
164.426,1,2
164.426,2,3
164.43,3,1
164.43,1,1
164.434,1,1
164.434,1,0
164.439,1,1
164.439,0,0
164.439,0,1
164.443,2,2
164.443,3,3
164.447,2,1
164.447,0,2
164.451,3,6
164.451,6,3
164.451,0,-1
164.455,0,0
164.455,0,1
164.459,2,2
164.459,2,2
164.463,1,1
164.463,1,1
164.463,1,1
164.467,2,3
164.467,3,2
164.471,2,1
164.471,1,1
164.475,1,1
164.475,0,1
164.475,1,1
164.479,1,2
164.479,3,2
164.484,1,1
164.484,1,2
164.488,2,3
164.488,2,2
164.488,1,1
164.492,1,1
164.492,1,1
164.496,1,1
164.496,0,0
164.496,1,1
164.5,1,1
164.5,2,1
164.504,1,1
164.504,1,1
164.508,1,1
164.508,2,3
164.508,3,3
164.512,1,1
164.512,1,0
164.516,1,1
164.516,1,1
164.52,1,1
164.521,1,1
164.521,2,2
164.525,2,2
164.525,2,2
164.529,3,2
164.529,2,2
164.533,2,1
164.533,1,0
164.533,0,0
164.537,0,2
164.537,2,2
164.541,1,1
164.541,2,1
164.545,1,0
164.545,0,2
164.545,4,7
164.549,7,3
164.549,0,-1
164.553,0,0
164.553,0,1
164.557,0,1
164.557,2,2
164.557,2,2
164.561,2,2
164.562,2,2
164.566,1,1
164.566,2,1
164.57,1,1
164.57,1,1
164.57,2,3
164.574,3,3
164.574,1,1
164.578,0,1
164.578,1,1
164.582,2,1
164.582,1,1
164.582,1,1
164.586,2,2
164.586,2,2
164.59,2,2
164.59,2,2
164.59,2,1
164.594,1,1
164.594,1,1
164.598,1,1
164.598,1,1
164.602,1,1
164.602,1,0
164.602,1,1
164.606,2,2
164.606,2,2
164.611,2,2
164.611,2,1
164.615,1,1
164.615,2,2
164.615,2,2
164.619,2,1
164.619,1,2
164.623,2,2
164.623,2,3
164.627,1,1
164.627,1,1
164.627,1,1
164.631,1,0
164.631,1,1
164.635,1,0
164.635,0,1
164.639,3,4
164.639,5,3
164.639,2,1
164.643,0,0
164.643,1,1
164.647,1,1
164.647,1,2
164.652,2,2
164.652,3,2
164.652,2,1
164.656,1,2
164.656,2,2
164.66,2,2
164.66,1,1
164.664,1,1
164.664,1,1
164.664,1,2
164.668,2,2
164.668,2,2
164.672,2,1
164.672,1,1
164.676,2,2
164.676,2,2
164.676,2,1
164.68,1,1
164.68,2,2
164.684,2,2
164.684,2,1
164.688,1,2
164.688,2,2
164.688,2,2
164.692,2,1
164.692,1,1
164.697,1,1
164.697,2,2
164.697,2,2
164.701,2,1
164.701,1,1
164.705,1,1
164.705,2,2
164.709,3,2
164.709,2,1
164.709,1,2
164.713,2,2
164.713,2,2
164.717,1,1
164.717,2,2
164.721,2,2
164.721,1,1
164.721,1,1
164.725,2,2
164.725,2,2
164.729,1,0
164.729,0,1
164.733,2,4
164.733,4,3
164.733,1,1
164.737,0,0
164.738,0,0
164.742,2,2
164.742,1,1
164.746,1,1
164.746,1,2
164.746,2,2
164.75,2,2
164.75,2,2
164.754,2,2
164.754,1,1
164.758,1,1
164.758,0,1
164.758,1,1
164.762,1,2
164.762,1,1
164.766,2,2
164.766,2,2
164.77,2,2
164.77,2,2
164.77,2,1
164.774,1,1
164.774,2,2
164.778,2,2
164.779,2,1
164.783,1,1
164.783,1,1
164.783,0,1
164.787,1,1
164.787,2,2
164.791,2,2
164.791,2,2
164.791,2,2
164.795,1,1
164.795,1,1
164.799,1,1
164.799,1,1
164.803,1,1
164.803,2,2
164.803,2,2
164.807,2,2
164.807,2,3
164.811,2,2
164.811,1,1
164.815,0,0
164.815,0,1
164.815,1,1
164.819,1,1
164.819,1,2
164.824,2,2
164.824,2,2
164.828,2,2
164.828,2,1
164.828,1,0
164.832,0,1
164.832,1,3
164.836,4,3
164.836,3,1
164.84,1,1
164.84,1,1
164.84,1,0
164.844,0,0
164.844,1,1
164.848,2,2
164.848,2,2
164.852,2,2
164.852,2,2
164.852,2,1
164.856,1,1
164.856,1,1
164.86,1,1
164.86,1,2
164.865,2,2
164.865,2,1
164.865,2,2
164.869,3,1
164.869,1,1
164.873,2,1
164.873,1,1
164.877,0,0
164.877,2,1
164.877,1,1
164.881,1,1
164.881,1,1
164.885,0,1
164.885,1,1
164.885,1,1
164.889,2,2
164.889,2,2
164.893,2,2
164.893,2,2
164.897,2,2
164.897,1,1
164.897,1,0
164.901,1,2
164.901,2,2
164.905,2,2
164.905,1,1
164.91,1,1
164.91,2,2
164.91,2,2
164.914,2,1
164.914,0,0
164.918,2,2
164.918,2,1
164.922,0,0
164.922,0,0
164.922,3,5
164.926,5,3
164.926,1,0
164.93,0,0
164.93,2,1
164.934,1,1
164.934,1,1
164.934,2,2
164.938,1,0
164.938,0,1
164.942,1,1
164.942,1,2
164.947,3,3
164.947,2,1
164.947,1,1
164.951,1,1
164.951,1,1
164.955,1,1
164.955,1,1
164.959,1,0
164.959,1,1
164.959,1,1
164.963,1,2
164.963,2,2
164.967,3,2
164.967,2,2
164.971,2,1
164.971,1,1
164.971,1,1
164.975,1,1
164.975,0,1
164.979,1,1
164.979,1,1
164.983,1,2
164.983,3,3
164.983,2,2
164.987,1,1
164.987,2,1
164.991,1,1
164.991,1,1
164.992,1,1
164.996,1,1
164.996,1,1
165,1,0
165,1,1
165.004,1,2
165.004,3,2
165.004,2,2
165.008,2,2
165.008,2,1
165.012,1,1
165.012,0,0
165.016,1,0
165.016,0,0
165.016,2,3
165.02,4,4
165.02,2,1
165.024,0,0
165.024,1,1
165.028,1,1
165.028,1,2
165.028,2,2
165.032,2,1
165.032,2,1
165.037,1,1
165.037,1,1
165.041,2,2
165.041,2,1
165.041,1,2
165.045,2,2
165.045,2,2
165.049,2,2
165.049,1,1
165.053,1,1
165.053,1,1
165.053,1,1
165.057,1,1
165.057,1,0
165.061,1,1
165.061,1,2
165.065,2,2
165.065,2,2
165.065,2,2
165.069,2,2
165.069,2,1
165.073,1,1
165.073,1,1
165.077,1,1
165.078,1,1
165.078,1,1
165.082,1,1
165.082,1,1
165.086,0,1
165.086,1,1
165.09,1,2
165.09,2,2
165.09,2,2
165.094,2,1
165.094,1,1
165.098,1,2
165.098,2,2
165.098,2,2
165.102,2,2
165.102,1,1
165.106,2,2
165.106,2,2
165.11,2,2
165.11,1,1
165.11,2,2
165.114,1,1
165.114,1,1
165.118,1,0
165.118,0,0
165.123,0,0
165.123,2,3
165.123,5,3
165.127,2,1
165.127,0,0
165.131,1,1
165.131,2,3
165.135,2,2
165.135,1,1
165.135,1,1
165.139,1,1
165.139,1,1
165.143,0,0
165.143,1,1
165.147,1,1
165.147,1,2
165.147,3,3
165.151,3,1
165.151,1,1
165.155,1,1
165.155,1,1
165.159,1,0
165.159,1,1
165.159,1,1
165.163,2,2
165.163,1,1
165.168,1,2
165.168,3,3
165.172,2,1
165.172,2,1
165.172,1,0
165.176,0,1
165.176,1,2
165.18,2,2
165.18,1,2
165.184,3,2
165.184,2,2
165.184,2,2
165.188,1,1
165.188,1,1
165.192,1,1
165.192,1,1
165.192,1,0
165.196,0,1
165.196,0,0
165.2,1,1
165.2,2,2
165.205,2,2
165.205,2,2
165.205,2,2
165.209,2,2
165.209,2,2
165.213,2,1
165.213,1,2
165.217,1,0
165.217,0,0
165.217,1,3
165.221,4,1
165.221,0,1
165.225,1,1
165.225,1,2
165.229,2,2
165.229,2,2
165.229,2,2
165.233,2,2
165.233,0,0
165.237,1,1
165.237,1,1
165.243,1,1
165.243,2,2
165.243,2,2
165.246,3,2
165.246,2,2
165.25,2,1
165.25,1,0
165.254,0,1
165.254,2,2
165.254,1,1
165.258,1,0
165.258,0,1
165.262,1,1
165.262,1,2
165.266,2,2
165.266,2,2
165.266,2,1
165.27,1,1
165.27,2,2
165.274,3,3
165.274,1,1
165.278,1,1
165.278,1,0
165.278,1,1
165.282,1,1
165.282,2,2
165.286,3,2
165.286,1,1
165.286,0,1
165.29,1,1
165.29,2,2
165.295,2,3
165.295,2,1
165.299,1,1
165.299,1,0
165.299,1,2
165.303,2,2
165.303,1,1
165.307,1,1
165.307,0,1
165.311,2,2
165.311,1,1
165.311,0,1
165.315,3,6
165.315,6,2
165.319,0,-1
165.319,0,0
165.323,0,1
165.323,0,1
165.323,2,3
165.327,3,2
165.327,2,2
165.331,2,1
165.331,0,0
165.336,0,1
165.336,1,1
165.336,1,1
165.34,1,1
165.34,2,2
165.344,2,2
165.344,2,1
165.348,1,1
165.348,2,2
165.348,2,2
165.352,1,2
165.352,2,2
165.356,1,1
165.356,1,1
165.36,2,2
165.36,2,2
165.36,1,1
165.364,1,1
165.364,2,2
165.368,1,2
165.368,2,2
165.372,2,2
165.372,2,2
165.372,1,1
165.377,1,1
165.377,1,0
165.381,1,1
165.381,1,2
165.381,2,2
165.385,2,2
165.385,2,2
165.389,1,1
165.389,1,2
165.393,2,1
165.393,1,0
165.393,0,1
165.397,1,2
165.397,2,2
165.401,1,1
165.401,1,1
165.405,1,1
165.405,1,1
165.405,2,2
165.409,2,1
165.409,2,2
165.413,3,4
165.413,4,1
165.417,0,0
165.417,0,0
165.417,2,2
165.422,1,1
165.422,1,1
165.426,1,1
165.426,0,2
165.43,2,2
165.43,1,1
165.43,1,1
165.434,1,1
165.434,2,2
165.438,1,1
165.438,1,1
165.442,0,1
165.442,1,2
165.442,2,2
165.446,2,2
165.446,2,2
165.45,3,2
165.45,1,1
165.454,0,0
165.454,1,2
165.454,2,2
165.458,1,1
165.458,1,1
165.463,1,0
165.463,1,1
165.467,1,2
165.467,2,2
165.467,2,2
165.471,2,2
165.471,1,1
165.475,1,1
165.475,1,1
165.479,0,1
165.479,1,1
165.479,0,1
165.483,1,1
165.483,2,2
165.487,3,2
165.487,2,2
165.487,1,1
165.491,1,1
165.491,1,1
165.495,1,2
165.495,2,1
165.499,0,0
165.499,0,1
165.499,1,1
165.503,1,0
165.503,1,2
165.508,4,6
165.508,6,3
165.512,0,0
165.512,0,0
165.512,0,2
165.516,2,1
165.516,1,1
165.52,1,1
165.52,1,0
165.524,1,1
165.524,1,0
165.524,1,2
165.528,2,2
165.528,2,2
165.532,2,2
165.532,2,2
165.536,2,2
165.536,1,1
165.536,0,1
165.54,1,0
165.54,0,1
165.544,2,2
165.544,2,1
165.548,1,2
165.548,3,3
165.549,2,1
165.553,1,1
165.553,1,1
165.557,1,1
165.557,1,1
165.561,0,1
165.561,1,1
165.561,0,1
165.565,1,1
165.565,2,2
165.569,2,2
165.569,1,2
165.573,2,2
165.573,2,2
165.573,2,2
165.577,1,1
165.577,0,0
165.581,1,1
165.581,1,2
165.581,2,2
165.585,2,2
165.585,2,2
165.59,2,2
165.59,1,1
165.594,1,0
165.594,0,1
165.594,1,2
165.598,1,0
165.598,1,1
165.602,3,5
165.602,6,3
165.606,1,0
165.606,0,0
165.606,0,1
165.61,1,0
165.61,1,1
165.614,2,2
165.614,2,2
165.618,1,1
165.618,1,1
165.618,1,2
165.622,2,2
165.622,2,1
165.626,1,1
165.626,2,2
165.63,3,2
165.63,2,1
165.63,1,0
165.635,0,1
165.635,1,1
165.639,1,1
165.639,1,1
165.643,1,2
165.643,2,1
165.643,1,1
165.647,2,2
165.647,2,2
165.651,2,2
165.651,2,2
165.655,1,1
165.655,1,1
165.655,1,1
165.659,0,1
165.659,1,2
165.663,3,2
165.663,1,0
165.667,0,2
165.667,2,1
165.667,2,1
165.671,1,1
165.671,0,1
165.676,1,1
165.676,1,1
165.676,1,0
165.68,1,1
165.68,0,0
165.684,1,2
165.684,3,3
165.688,4,2
165.688,1,0
165.688,1,1
165.692,2,2
165.692,2,1
165.696,1,0
165.696,0,0
165.7,1,1
165.7,1,1
165.7,2,4
165.704,4,2
165.704,1,0
165.708,0,0
165.708,1,1
165.712,1,2
165.712,2,2
165.712,2,2
165.716,3,2
165.716,1,1
165.721,0,1
165.721,0,0
165.725,1,1
165.725,1,2
165.725,2,2
165.729,2,2
165.729,2,3
165.733,2,1
165.733,1,1
165.737,1,0
165.737,0,1
165.737,1,1
165.741,1,1
165.741,1,1
165.745,1,2
165.745,3,3
165.749,3,1
165.749,1,2
165.749,1,1
165.753,1,0
165.753,0,0
165.757,1,1
165.757,1,1
165.761,1,1
165.761,1,1
165.761,1,1
165.766,2,2
165.766,2,2
165.77,2,2
165.77,2,2
165.77,2,2
165.774,2,1
165.774,1,1
165.778,0,0
165.778,1,0
165.782,1,1
165.782,1,2
165.782,2,2
165.786,2,2
165.786,2,2
165.79,2,1
165.79,1,1
165.794,1,1
165.794,1,0
165.794,1,2
165.798,3,6
165.798,6,3
165.802,1,0
165.802,0,0
165.807,0,0
165.807,0,0
165.807,1,1
165.811,1,2
165.811,3,3
165.815,2,1
165.815,0,1
165.819,1,1
165.819,2,2
165.819,1,1
165.823,1,2
165.823,2,2
165.827,1,2
165.827,2,3
165.831,2,1
165.831,1,0
165.831,1,2
165.835,2,1
165.835,1,1
165.839,1,1
165.839,1,2
165.843,2,2
165.843,2,2
165.843,2,3
165.847,3,2
165.848,2,1
165.852,1,1
165.852,2,1
165.856,0,0
165.856,0,1
165.856,2,3
165.86,2,1
165.86,1,0
165.864,1,1
165.864,1,2
165.864,3,3
165.868,2,1
165.868,1,1
165.872,1,0
165.872,1,1
165.876,2,2
165.876,1,1
165.876,2,2
165.88,2,2
165.88,2,1
165.884,0,0
165.884,0,2
165.888,3,5
165.888,3,2
165.889,0,0
165.893,0,1
165.893,2,3
165.897,3,1
165.897,1,0
165.901,1,1
165.901,1,1
165.901,1,1
165.905,2,2
165.905,2,2
165.909,2,1
165.909,1,1
165.913,2,3
165.913,3,2
165.913,1,1
165.917,0,0
165.917,1,2
165.921,2,2
165.921,1,1
165.925,1,2
165.925,2,2
165.925,2,2
165.929,2,2
165.929,2,1
165.933,1,1
165.934,1,1
165.938,1,1
165.938,0,1
165.938,1,1
165.942,1,1
165.942,1,2
165.946,2,2
165.946,2,2
165.95,2,2
165.95,2,2
165.95,2,1
165.954,1,1
165.954,0,1
165.958,1,1
165.958,2,1
165.958,1,1
165.962,2,2
165.962,1,2
165.966,3,3
165.966,2,2
165.97,1,0
165.97,0,0
165.97,2,2
165.974,1,1
165.974,0,1
165.979,1,0
165.979,0,1
165.983,2,5
165.983,5,4
165.983,1,0
165.987,0,0
165.987,1,1
165.991,1,1
165.991,1,1
165.995,1,0
165.995,1,2
165.995,2,2
165.999,2,2
165.999,1,1
166.003,1,0
166.003,0,2
166.007,2,2
166.007,3,3
166.007,2,2
166.011,2,1
166.011,1,2
166.015,2,2
166.015,2,2
166.02,1,1
166.02,1,1
166.02,1,1
166.024,1,2
166.024,3,3
166.028,2,2
166.028,2,1
166.032,1,1
166.032,1,1
166.032,1,0
166.036,0,1
166.036,1,1
166.04,1,1
166.04,1,1
166.044,1,2
166.044,2,2
166.044,2,2
166.048,2,2
166.048,2,2
166.052,2,2
166.052,1,1
166.052,1,1
166.056,1,1
166.056,1,1
166.06,2,1
166.06,1,1
166.065,1,1
166.065,2,2
166.065,2,2
166.069,2,2
166.069,2,2
166.073,2,1
166.073,1,1
166.077,1,0
166.077,1,1
166.077,0,1
166.081,2,2
166.081,1,0
166.085,0,0
166.085,2,5
166.089,6,4
166.089,2,1
166.089,0,0
166.093,1,1
166.093,0,1
166.097,1,1
166.097,1,1
166.101,0,1
166.102,1,1
166.102,1,1
166.105,1,1
166.106,2,3
166.11,3,2
166.11,2,2
166.114,1,1
166.114,1,1
166.114,1,1
166.118,1,2
166.118,2,1
166.122,0,0
166.122,0,1
166.126,1,2
166.126,2,2
166.126,2,2
166.13,1,2
166.13,3,2
166.134,2,1
166.134,0,0
166.134,1,1
166.138,1,1
166.138,1,1
166.142,2,2
166.142,2,2
166.147,2,2
166.147,3,1
166.147,1,2
166.151,3,3
166.151,1,0
166.155,1,0
166.155,0,0
166.159,0,1
166.159,1,1
166.159,1,2
166.163,3,3
166.163,2,2
166.167,1,1
166.167,1,0
166.171,0,1
166.171,1,1
166.171,2,2
166.175,2,2
166.175,1,1
166.179,0,0
166.179,1,2
166.183,4,5
166.183,5,2
166.183,0,0
166.187,1,2
166.187,2,2
166.192,2,1
166.192,1,1
166.196,1,1
166.196,1,0
166.196,0,0
166.2,0,1
166.2,1,1
166.204,2,2
166.204,2,2
166.208,1,1
166.208,2,2
166.208,2,2
166.212,3,2
166.212,1,0
166.216,0,1
166.216,1,0
166.22,0,1
166.22,1,1
166.22,1,2
166.224,2,2
166.224,2,2
166.228,2,2
166.228,2,2
166.228,2,1
166.232,1,1
166.233,1,0
166.237,1,1
166.237,1,1
166.241,1,0
166.241,1,1
166.241,1,1
166.245,2,2
166.245,1,1
166.249,2,2
166.249,3,3
166.253,1,1
166.253,0,1
166.253,1,1
166.257,2,2
166.257,1,1
166.261,1,2
166.261,2,2
166.265,2,2
166.265,2,2
166.265,2,1
166.269,2,2
166.269,2,2
166.274,1,1
166.274,0,0
166.278,0,0
166.278,1,2
166.278,3,5
166.282,4,3
166.282,1,0
166.286,0,0
166.286,0,0
166.29,2,2
166.29,2,2
166.29,2,1
166.294,1,1
166.294,1,1
166.298,1,1
166.298,0,0
166.302,1,1
166.302,0,0
166.302,1,2
166.306,2,3
166.306,3,2
166.31,2,2
166.31,2,2
166.314,2,2
166.314,2,2
166.314,2,1
166.318,1,1
166.319,1,2
166.323,2,2
166.323,2,2
166.323,2,1
166.327,1,1
166.327,1,1
166.331,1,1
166.331,1,2
166.335,2,1
166.335,1,0
166.335,0,0
166.339,1,1
166.339,1,1
166.343,1,2
166.343,3,3
166.347,2,2
166.347,1,1
166.347,1,2
166.351,2,2
166.351,1,1
166.355,2,2
166.355,2,1
166.359,1,1
166.359,2,2
166.359,2,2
166.364,2,2
166.364,1,2
166.368,2,2
166.368,2,1
166.372,1,1
166.372,1,1
166.372,1,1
166.376,1,0
166.376,1,0
166.38,0,0
166.38,2,5
166.384,5,3
166.384,2,2
166.384,2,2
166.388,1,0
166.388,1,1
166.392,2,3
166.392,2,0
166.396,0,0
166.396,1,1
166.396,0,0
166.4,1,2
166.4,2,2
166.405,1,1
166.405,1,2
166.409,2,2
166.409,3,3
166.409,2,2
166.413,1,0
166.413,0,1
166.417,1,1
166.417,1,1
166.417,0,1
166.421,1,1
166.421,2,2
166.425,2,2
166.425,2,2
166.429,2,2
166.429,2,1
166.429,1,0
166.433,0,0
166.433,1,1
166.437,1,1
166.437,1,1
166.441,2,2
166.441,2,1
166.441,1,1
166.445,2,2
166.445,3,3
166.45,2,2
166.45,1,1
166.454,1,1
166.454,0,0
166.454,1,1
166.458,2,2
166.458,2,2
166.462,2,2
166.462,1,1
166.466,1,1
166.466,1,1
166.466,1,1
166.47,1,1
166.47,1,1
166.474,0,1
166.474,0,0
166.478,2,6
166.478,6,3
166.478,1,0
166.482,0,-1
166.482,0,1
166.486,2,2
166.486,3,2
166.491,2,1
166.491,1,1
166.491,1,0
166.495,1,1
166.495,1,2
166.499,2,2
166.499,1,2
166.503,2,1
166.503,1,1
166.503,2,2
166.507,2,2
166.507,2,2
166.511,2,2
166.511,2,1
166.515,1,1
166.515,1,1
166.515,1,1
166.519,1,1
166.519,1,1
166.523,2,2
166.523,3,3
166.523,2,1
166.527,1,1
166.527,1,1
166.531,0,1
166.531,1,1
166.536,2,2
166.536,2,2
166.536,2,2
166.54,1,1
166.54,1,1
166.544,1,1
166.544,1,1
166.548,2,3
166.548,3,2
166.548,1,1
166.552,0,1
166.552,1,1
166.556,0,1
166.556,1,1
166.56,1,2
166.56,3,3
166.56,2,2
166.564,1,1
166.564,0,0
166.568,1,1
166.568,1,2
166.573,2,2
166.573,3,2
166.573,1,1
166.577,1,1
166.577,1,0
166.581,0,0
166.581,0,2
166.585,3,5
166.585,3,2
166.585,1,1
166.589,1,1
166.589,2,1
166.593,1,0
166.593,0,0
166.597,1,2
166.597,3,1
166.597,1,1
166.601,1,1
166.601,1,1
166.605,2,2
166.605,1,1
166.609,1,2
166.609,2,3
166.609,3,1
166.613,1,0
166.613,1,1
166.618,1,1
166.618,2,1
166.618,0,1
166.622,2,2
166.622,2,2
166.626,3,2
166.626,2,1
166.63,2,2
166.63,1,1
166.63,0,1
166.634,1,1
166.634,1,2
166.638,2,2
166.638,2,1
166.642,1,1
166.642,2,2
166.642,2,2
166.646,2,2
166.646,2,1
166.65,1,2
166.65,3,2
166.654,2,1
166.654,1,0
166.654,0,1
166.658,1,1
166.658,0,0
166.663,1,2
166.663,2,3
166.667,3,2
166.667,2,2
166.667,1,1
166.671,2,2
166.671,3,3
166.675,2,1
166.675,0,0
166.679,0,0
166.679,1,0
166.679,0,0
166.683,1,3
166.683,4,2
166.687,1,1
166.687,1,1
166.691,1,1
166.691,1,1
166.691,1,1
166.695,0,1
166.695,2,2
166.699,1,1
166.699,0,1
166.699,1,1
166.703,1,1
166.703,2,2
166.708,2,3
166.708,3,2
166.712,2,2
166.712,2,2
166.712,2,2
166.716,2,1
166.716,0,0
166.72,0,0
166.72,1,1
166.724,1,1
166.724,1,2
166.724,2,2
166.728,2,2
166.728,3,2
166.732,2,1
166.732,1,1
166.736,1,1
166.736,1,1
166.736,1,0
166.74,0,0
166.74,0,0
166.744,1,2
166.744,3,3
166.749,3,3
166.749,3,2
166.749,1,1
166.753,0,0
166.753,1,1
166.757,1,1
166.757,1,0
166.761,1,1
166.761,1,1
166.761,1,1
166.765,2,2
166.765,3,3
166.769,2,2
166.769,2,1
166.773,1,0
166.773,0,0
166.773,1,1
166.777,1,1
166.777,1,2
166.781,2,2
166.781,2,2
166.785,1,1
166.785,0,0
166.785,1,2
166.789,3,5
166.789,4,3
166.794,1,0
166.794,0,0
166.794,0,0
166.798,1,2
166.798,2,2
166.802,2,2
166.802,1,2
166.806,2,2
166.806,2,1
166.806,2,2
166.81,2,2
166.81,2,1
166.814,1,1
166.814,1,1
166.818,2,1
166.818,1,1
166.818,2,2
166.822,2,2
166.822,2,2
166.826,2,2
166.826,2,1
166.83,1,1
166.83,1,1
166.831,1,1
166.835,1,1
166.835,1,1
166.839,1,0
166.839,1,1
166.843,1,2
166.843,2,2
166.843,2,2
166.847,2,2
166.847,2,1
166.851,1,0
166.851,0,2
166.855,2,1
166.855,1,1
166.855,1,2
166.859,2,2
166.859,2,2
166.863,2,2
166.863,2,1
166.867,1,1
166.867,1,1
166.867,1,1
166.871,0,1
166.871,1,1
166.876,1,1
166.876,1,2
166.88,2,2
166.88,3,3
166.88,2,1
166.884,0,0
166.884,2,1
166.888,2,2
166.888,2,0
166.888,0,1
166.892,3,4
166.892,4,1
166.896,0,0
166.896,0,1
166.9,2,2
166.9,2,1
166.9,1,1
166.904,1,1
166.904,2,2
166.908,2,2
166.908,2,1
166.912,1,1
166.912,1,2
166.912,3,3
166.916,2,1
166.916,1,0
166.921,1,1
166.921,1,2
166.925,2,2
166.925,2,2
166.925,2,2
166.929,1,1
166.929,1,2
166.933,2,2
166.933,2,2
166.937,1,1
166.937,1,1
166.937,1,1
166.941,2,2
166.941,1,1
166.945,1,2
166.945,2,2
166.949,2,2
166.949,2,2
166.949,2,1
166.953,1,1
166.953,1,1
166.957,1,1
166.957,0,1
166.962,1,1
166.962,2,2
166.962,1,1
166.966,1,2
166.966,2,2
166.97,2,3
166.97,2,3
166.974,2,2
166.974,1,1
166.974,1,0
166.978,0,0
166.978,1,1
166.982,1,2
166.982,2,2
166.982,2,2
166.986,3,2
166.986,1,1
166.99,1,1
166.99,0,1
166.994,1,1
166.994,1,1
166.994,1,1
166.998,2,3
166.998,2,1
167.002,0,0
167.002,1,3
167.007,4,3
167.007,1,1
167.007,0,1
167.011,2,2
167.011,2,1
167.015,1,2
167.015,1,1
167.019,0,0
167.019,1,1
167.019,1,1
167.023,1,1
167.023,1,2
167.027,3,2
167.027,2,2
167.031,3,2
167.031,2,2
167.031,2,2
167.035,1,1
167.035,0,0
167.039,0,1
167.039,1,1
167.043,2,2
167.043,2,2
167.044,2,2
167.048,2,2
167.048,2,2
167.052,2,1
167.052,1,1
167.056,1,0
167.056,1,1
167.056,1,1
167.06,1,1
167.06,2,2
167.064,2,2
167.064,1,2
167.068,2,2
167.068,2,2
167.068,2,2
167.072,1,1
167.072,0,0
167.076,0,0
167.076,1,1
167.076,1,3
167.08,3,3
167.08,2,2
167.084,1,1
167.084,1,1
167.089,2,2
167.089,2,2
167.089,2,2
167.093,2,2
167.093,1,1
167.097,1,1
167.097,0,0
167.101,0,0
167.101,1,3
167.101,4,2
167.105,1,1
167.105,0,1
167.109,2,2
167.109,2,1
167.113,1,1
167.113,2,2
167.113,2,1
167.117,1,1
167.117,1,1
167.121,2,2
167.121,2,2
167.125,2,2
167.125,2,2
167.125,2,1
167.129,1,1
167.13,1,1
167.134,0,1
167.134,1,1
167.138,2,2
167.138,2,2
167.138,2,2
167.142,2,1
167.142,1,1
167.146,1,1
167.146,1,1
167.15,1,1
167.15,1,1
167.15,1,0
167.154,1,1
167.154,1,1
167.158,1,1
167.158,1,1
167.162,1,1
167.162,1,1
167.162,2,2
167.166,3,4
167.166,4,3
167.17,2,1
167.17,1,0
167.175,0,0
167.175,0,0
167.175,1,2
167.179,3,3
167.179,2,1
167.183,0,1
167.183,1,1
167.183,1,2
167.187,2,2
167.187,1,2
167.191,2,3
167.191,2,1
167.195,0,0
167.195,0,1
167.195,2,5
167.199,5,3
167.199,0,0
167.203,0,0
167.203,0,0
167.207,2,2
167.207,2,1
167.207,1,1
167.211,1,1
167.211,1,1
167.216,1,1
167.216,1,1
167.22,1,2
167.22,2,2
167.22,2,2
167.224,1,1
167.224,1,1
167.228,1,2
167.228,3,3
167.232,2,2
167.232,1,1
167.232,1,1
167.236,1,1
167.236,0,0
167.24,1,1
167.24,1,1
167.244,2,2
167.244,2,2
167.244,2,2
167.248,2,2
167.248,2,1
167.252,0,0
167.252,1,0
167.256,0,1
167.256,1,1
167.256,1,1
167.261,2,2
167.261,2,2
167.265,2,3
167.265,3,2
167.265,1,1
167.269,1,1
167.269,1,1
167.273,1,1
167.273,2,2
167.277,2,2
167.277,2,2
167.277,2,2
167.281,1,1
167.281,1,1
167.285,2,2
167.285,2,2
167.289,2,2
167.289,1,1
167.289,0,1
167.293,2,4
167.293,4,4
167.297,1,0
167.297,0,0
167.301,0,2
167.301,2,2
167.301,1,1
167.306,1,2
167.306,2,2
167.31,2,2
167.31,2,2
167.314,2,1
167.314,1,1
167.314,1,0
167.318,1,1
167.318,1,1
167.322,1,1
167.322,2,3
167.326,4,2
167.326,2,1
167.326,1,1
167.33,1,1
167.33,1,1
167.334,0,0
167.334,1,1
167.338,2,2
167.338,2,2
167.338,1,1
167.342,2,3
167.342,3,2
167.347,1,1
167.347,1,1
167.351,1,1
167.351,0,1
167.351,1,1
167.355,1,1
167.355,1,1
167.359,1,1
167.359,1,1
167.359,1,1
167.363,0,1
167.363,1,1
167.367,1,2
167.367,2,2
167.371,2,2
167.371,2,1
167.371,1,2
167.375,2,2
167.375,2,2
167.379,2,1
167.379,1,1
167.383,1,2
167.383,2,2
167.383,1,1
167.387,1,1
167.387,1,1
167.392,1,1
167.392,3,6
167.396,5,1
167.396,0,0
167.396,0,0
167.4,1,1
167.4,1,1
167.404,2,2
167.404,1,2
167.408,2,2
167.408,2,3
167.408,2,2
167.412,2,1
167.412,0,0
167.416,1,1
167.416,1,1
167.42,2,2
167.42,2,2
167.42,2,2
167.424,2,2
167.424,2,1
167.428,1,1
167.429,2,2
167.433,2,2
167.433,2,2
167.433,1,1
167.437,1,1
167.437,1,2
