Program Time [s],data 0,data 1
1059.85,1,1
1059.85,2,2
1059.85,2,2
1059.85,2,2
1059.85,2,2
1059.85,2,1
1059.86,1,1
1059.86,1,1
1059.86,0,1
1059.86,1,2
1059.87,2,2
1059.87,1,2
1059.87,2,3
1059.87,2,1
1059.87,0,0
1059.87,1,2
1059.87,3,2
1059.88,1,1
1059.88,1,1
1059.88,0,1
1059.88,1,0
1059.88,0,0
1059.89,1,3
1059.89,3,3
1059.89,3,3
1059.89,1,1
1059.89,1,1
1059.89,1,1
1059.89,0,1
1059.9,1,1
1059.9,2,2
1059.9,2,2
1059.9,2,2
1059.9,2,1
1059.91,1,1
1059.91,1,1
1059.91,0,1
1059.91,1,1
1059.92,1,2
1059.92,3,3
1059.92,1,1
1059.92,0,1
1059.92,1,1
1059.92,0,0
1059.92,1,4
1059.93,6,4
1059.93,2,1
1059.93,1,0
1059.93,0,0
1059.93,0,1
1059.94,2,2
1059.94,2,2
1059.94,2,2
1059.94,1,1
1059.94,1,1
1059.94,1,1
1059.94,1,2
1059.95,2,2
1059.95,1,1
1059.95,1,2
1059.95,2,3
1059.95,2,2
1059.96,2,1
1059.96,1,1
1059.96,0,1
1059.96,1,2
1059.96,3,4
1059.96,2,0
1059.96,0,1
1059.97,2,2
1059.97,2,2
1059.97,2,2
1059.97,2,1
1059.97,1,0
1059.98,0,0
1059.98,1,1
1059.98,1,1
1059.98,1,1
1059.98,1,2
1059.98,2,2
1059.99,2,2
1059.99,2,2
1059.99,2,2
1059.99,2,2
1059.99,1,1
1060,1,1
1060,1,1
1060,2,2
1060,2,2
1060,1,1
1060.01,1,2
1060.01,2,3
1060.01,2,1
1060.01,1,0
1060.01,1,0
1060.01,0,1
1060.01,2,2
1060.02,2,2
1060.02,1,0
1060.02,0,1
1060.02,2,4
1060.02,5,4
1060.03,3,0
1060.03,0,0
1060.03,0,0
1060.03,1,1
1060.03,1,1
1060.03,1,2
1060.03,2,2
1060.04,2,1
1060.04,1,1
1060.04,1,1
1060.04,2,2
1060.04,1,1
1060.05,2,2
1060.05,3,3
1060.05,3,3
1060.05,2,1
1060.05,0,0
1060.05,0,0
1060.05,0,1
1060.06,3,3
1060.06,2,2
1060.06,1,2
1060.06,3,3
1060.07,2,1
1060.07,1,1
1060.07,1,1
1060.07,2,2
1060.07,3,2
1060.08,2,1
1060.08,0,0
1060.08,1,1
1060.08,1,1
1060.08,1,1
1060.08,2,2
1060.08,2,2
1060.09,2,2
1060.09,2,2
1060.09,2,1
1060.09,2,2
1060.09,1,1
1060.1,1,0
1060.1,0,1
1060.1,1,1
1060.1,1,1
1060.1,1,2
1060.1,2,3
1060.1,3,2
1060.11,2,1
1060.11,1,1
1060.11,0,0
1060.11,0,0
1060.12,0,1
1060.12,3,5
1060.12,5,2
1060.12,0,0
1060.12,0,1
1060.12,2,2
1060.12,2,2
1060.12,2,2
1060.13,1,1
1060.13,1,2
1060.13,2,3
1060.13,2,1
1060.14,1,0
1060.14,1,1
1060.14,2,2
1060.14,2,2
1060.14,2,2
1060.14,2,2
1060.14,2,1
1060.15,1,0
1060.15,1,1
1060.15,2,3
1060.15,2,1
1060.15,1,1
1060.16,1,1
1060.16,2,1
1060.16,1,0
1060.16,0,0
1060.16,0,1
1060.17,2,2
1060.17,2,2
1060.17,2,3
1060.17,3,1
1060.17,0,1
1060.17,2,2
1060.17,1,2
1060.18,3,2
1060.18,1,0
1060.18,0,0
1060.18,1,1
1060.19,2,4
1060.19,3,2
1060.19,0,0
1060.19,0,2
1060.19,1,1
1060.19,1,2
1060.19,2,1
1060.2,0,0
1060.2,1,1
1060.2,1,2
1060.2,2,2
1060.2,2,1
1060.21,1,1
1060.21,1,1
1060.21,1,1
1060.21,2,2
1060.21,2,1
1060.21,0,0
1060.21,2,2
1060.22,4,5
1060.22,3,2
1060.22,0,0
1060.22,0,0
1060.22,0,1
1060.23,2,2
1060.23,2,2
1060.23,2,2
1060.23,2,2
1060.23,1,1
1060.23,1,1
1060.23,2,2
1060.24,2,2
1060.24,1,1
1060.24,1,1
1060.24,1,2
1060.24,2,1
1060.25,1,2
1060.25,2,2
1060.25,2,2
1060.25,2,2
1060.26,2,1
1060.26,0,0
1060.26,2,1
1060.26,1,1
1060.26,1,1
1060.26,1,1
1060.26,1,1
1060.27,1,0
1060.27,1,1
1060.27,1,1
1060.27,1,1
1060.27,1,2
1060.28,2,2
1060.28,2,2
1060.28,2,2
1060.28,2,2
1060.28,2,1
1060.28,1,1
1060.28,1,1
1060.29,1,1
1060.29,0,1
1060.29,1,1
1060.29,1,2
1060.29,3,3
1060.3,1,0
1060.3,1,1
1060.3,1,2
1060.3,2,2
1060.3,2,2
1060.3,2,2
1060.3,1,2
1060.31,2,2
1060.31,2,1
1060.31,1,1
1060.31,1,1
1060.31,1,1
1060.32,1,1
1060.32,3,6
1060.32,6,3
1060.32,0,-1
1060.32,0,0
1060.32,0,1
1060.33,1,1
1060.33,1,1
1060.33,1,2
1060.33,3,3
1060.33,2,1
1060.34,1,0
1060.34,1,1
1060.34,1,1
1060.34,2,2
1060.34,2,2
1060.35,2,2
1060.35,1,2
1060.35,2,2
1060.35,2,1
1060.35,1,2
1060.35,2,3
1060.35,2,1
1060.36,0,1
1060.36,2,2
1060.36,2,2
1060.36,1,0
1060.36,0,1
1060.37,1,2
1060.37,2,2
1060.37,2,2
1060.37,2,2
1060.37,2,1
1060.37,1,1
1060.37,0,2
1060.38,2,2
1060.38,2,2
1060.38,1,1
1060.38,0,0
1060.39,1,1
1060.39,2,2
1060.39,2,2
1060.39,2,2
1060.39,1,0
1060.39,1,1
1060.39,2,2
1060.4,3,2
1060.4,1,1
1060.4,1,0
1060.4,1,1
1060.4,1,0
1060.41,0,1
1060.41,2,4
1060.41,4,4
1060.41,2,1
1060.41,1,1
1060.42,1,1
1060.42,1,1
1060.42,1,1
1060.42,0,0
1060.42,1,1
1060.42,1,2
1060.42,2,1
1060.43,1,1
1060.43,2,2
1060.43,2,2
1060.43,2,2
1060.43,2,2
1060.44,2,2
1060.44,3,3
1060.44,2,1
1060.44,0,0
1060.44,0,1
1060.44,2,2
1060.44,2,1
1060.45,1,1
1060.45,2,2
1060.45,2,2
1060.45,1,2
1060.46,2,2
1060.46,2,2
1060.46,2,2
1060.46,1,2
1060.46,2,2
1060.46,1,2
1060.46,3,1
1060.47,1,0
1060.47,1,2
1060.47,3,2
1060.47,1,0
1060.47,0,0
1060.48,0,1
1060.48,2,3
1060.48,2,2
1060.48,2,2
1060.48,3,2
1060.48,1,0
1060.48,0,1
1060.49,1,1
1060.49,1,1
1060.49,2,2
1060.49,3,3
1060.49,2,1
1060.5,0,0
1060.5,2,1
1060.5,1,1
1060.5,1,1
1060.5,0,1
1060.51,1,1
1060.51,2,2
1060.51,2,2
1060.51,2,1
1060.51,1,1
1060.51,2,3
1060.51,3,2
1060.52,2,1
1060.52,0,0
1060.52,0,1
1060.52,1,1
1060.53,1,2
1060.53,2,2
1060.53,2,2
1060.53,2,2
1060.53,2,1
1060.53,1,1
1060.53,2,2
1060.54,2,2
1060.54,2,2
1060.54,1,0
1060.54,0,0
1060.54,1,3
1060.55,4,4
1060.55,3,1
1060.55,0,0
1060.55,0,0
1060.55,2,1
1060.55,1,1
1060.55,1,1
1060.56,1,1
1060.56,1,1
1060.56,1,1
1060.56,0,1
1060.56,1,2
1060.57,2,1
1060.57,1,1
1060.57,2,2
1060.57,3,3
1060.57,2,2
1060.57,1,1
1060.57,1,1
1060.58,1,1
1060.58,0,0
1060.58,1,1
1060.58,2,2
1060.58,2,2
1060.59,2,2
1060.59,2,2
1060.59,2,1
1060.59,1,1
1060.6,1,1
1060.6,1,1
1060.6,2,2
1060.6,2,2
1060.6,1,2
1060.6,2,2
1060.6,2,1
1060.61,1,2
1060.61,3,2
1060.61,2,1
1060.61,1,1
1060.61,1,1
1060.62,1,1
1060.62,1,1
1060.62,0,0
1060.62,1,1
1060.62,1,2
1060.62,2,2
1060.62,2,2
1060.63,2,2
1060.63,2,1
1060.63,1,1
1060.63,1,1
1060.63,1,1
1060.64,0,1
1060.64,1,1
1060.64,1,2
1060.64,2,2
1060.64,2,2
1060.64,1,0
1060.64,0,0
1060.65,0,1
1060.65,2,5
1060.65,5,3
1060.65,0,0
1060.66,0,1
1060.66,2,1
1060.66,0,0
1060.66,0,0
1060.66,1,2
1060.67,3,2
1060.67,2,2
1060.67,2,2
1060.67,2,2
1060.67,1,1
1060.67,1,1
1060.67,2,2
1060.68,2,2
1060.68,2,2
1060.68,2,2
1060.68,1,1
1060.68,1,1
1060.69,1,2
1060.69,2,3
1060.69,2,1
1060.69,1,1
1060.69,1,1
1060.69,1,2
1060.69,2,2
1060.7,2,2
1060.7,2,1
1060.7,1,1
1060.7,1,2
1060.7,3,3
1060.71,1,1
1060.71,0,1
1060.71,0,0
1060.71,0,2
1060.71,2,2
1060.71,2,2
1060.71,3,2
1060.72,2,1
1060.72,1,0
1060.72,1,1
1060.72,1,2
1060.73,2,2
1060.73,2,2
1060.73,2,1
1060.73,1,1
1060.73,2,2
1060.73,2,2
1060.73,1,0
1060.74,0,0
1060.74,1,2
1060.74,4,6
1060.74,5,3
1060.74,0,0
1060.75,0,0
1060.75,1,2
1060.75,2,3
1060.75,2,2
1060.75,1,1
1060.76,0,0
1060.76,1,1
1060.76,1,1
1060.76,1,1
1060.76,1,2
1060.76,2,2
1060.76,2,2
1060.77,2,2
1060.77,2,2
1060.77,2,1
1060.77,1,1
1060.77,1,1
1060.78,1,1
1060.78,0,1
1060.78,1,0
1060.78,0,0
1060.78,2,3
1060.78,4,5
1060.78,3,1
1060.79,0,0
1060.79,0,0
1060.79,1,2
1060.79,2,2
1060.8,2,2
1060.8,1,1
1060.8,1,1
1060.8,2,2
1060.8,2,3
1060.8,2,1
1060.8,0,0
1060.81,1,1
1060.81,1,1
1060.81,1,1
1060.81,0,1
1060.81,1,1
1060.82,1,1
1060.82,2,2
1060.82,3,3
1060.82,2,1
1060.82,1,1
1060.82,1,1
1060.82,1,1
1060.83,1,1
1060.83,1,0
1060.83,1,1
1060.83,1,0
1060.83,0,0
1060.84,2,3
1060.84,4,4
1060.84,4,2
1060.84,0,0
1060.85,2,1
1060.85,1,1
1060.85,1,1
1060.85,0,1
1060.85,1,1
1060.85,2,2
1060.85,2,1
1060.85,1,1
1060.86,1,1
1060.86,2,2
1060.86,2,2
1060.86,2,2
1060.87,3,2
1060.87,2,2
1060.87,1,0
1060.87,0,0
1060.87,1,2
1060.87,2,2
1060.87,2,1
1060.88,1,1
1060.88,1,1
1060.88,1,2
1060.88,3,3
1060.88,3,1
1060.89,1,1
1060.89,1,0
1060.89,1,1
1060.89,1,1
1060.89,1,1
1060.89,1,2
1060.89,2,2
1060.9,2,2
1060.9,2,1
1060.9,1,2
1060.9,2,2
1060.9,2,2
1060.91,2,1
1060.91,1,0
1060.91,0,1
1060.91,1,2
1060.91,2,2
1060.91,2,2
1060.91,2,1
1060.92,1,1
1060.92,1,1
1060.92,1,2
1060.92,2,2
1060.93,1,0
1060.93,0,0
1060.93,1,2
1060.93,5,7
1060.93,7,3
1060.94,0,-1
1060.94,0,0
1060.94,0,0
1060.94,1,2
1060.94,2,2
1060.94,2,2
1060.94,1,1
1060.95,1,1
1060.95,1,1
1060.95,1,1
1060.95,1,2
1060.95,3,3
1060.96,2,2
1060.96,2,1
1060.96,1,1
1060.96,1,1
1060.96,1,1
1060.96,0,1
1060.96,1,2
1060.97,2,2
1060.97,1,1
1060.97,1,1
1060.97,2,2
1060.97,2,2
1060.98,2,2
1060.98,2,2
1060.98,2,3
1060.98,2,1
1060.98,0,0
1060.98,0,0
1060.98,2,2
1060.99,2,2
1060.99,1,1
1060.99,2,1
1060.99,1,2
1061,2,2
1061,2,2
1061,2,2
1061,2,2
1061,1,1
1061.01,1,1
1061.01,2,2
1061.01,2,2
1061.01,2,2
1061.01,2,2
1061.01,1,1
1061.01,1,1
1061.02,0,0
1061.02,0,1
1061.02,1,2
1061.02,2,2
1061.02,2,2
1061.03,1,1
1061.03,1,1
1061.03,1,1
1061.03,1,1
1061.03,1,1
1061.03,2,5
1061.03,5,3
1061.04,1,0
1061.04,0,0
1061.04,1,1
1061.04,2,3
1061.05,2,1
1061.05,1,1
1061.05,1,1
1061.05,1,1
1061.05,1,1
1061.05,0,1
1061.05,1,2
1061.05,2,2
1061.06,2,2
1061.06,1,1
1061.06,2,2
1061.06,2,1
1061.07,1,1
1061.07,1,1
1061.07,2,2
1061.07,2,2
1061.07,2,2
1061.07,1,2
1061.07,2,2
1061.08,2,2
1061.08,1,1
1061.08,1,1
1061.08,2,2
1061.08,2,2
1061.09,2,2
1061.09,1,1
1061.09,1,2
1061.09,2,2
1061.09,2,3
1061.09,2,1
1061.09,1,1
1061.1,1,0
1061.1,0,0
1061.1,1,1
1061.1,2,2
1061.1,3,2
1061.11,1,0
1061.11,0,1
1061.11,2,2
1061.11,2,2
1061.12,2,2
1061.12,2,2
1061.12,2,2
1061.12,1,2
1061.12,2,2
1061.12,1,1
1061.12,0,0
1061.13,1,2
1061.13,3,3
1061.13,3,1
1061.13,0,0
1061.13,2,7
1061.14,7,3
1061.14,0,-1
1061.14,0,0
1061.14,0,0
1061.14,2,2
1061.14,2,2
1061.14,1,1
1061.15,0,0
1061.15,1,1
1061.15,1,1
1061.15,1,1
1061.15,1,1
1061.16,2,2
1061.16,2,2
1061.16,2,2
1061.16,2,2
1061.16,1,2
1061.16,2,2
1061.16,2,2
1061.17,1,1
1061.17,1,1
1061.17,1,1
1061.17,1,1
1061.17,1,1
1061.18,1,1
1061.18,1,0
1061.18,1,1
1061.18,1,2
1061.19,2,2
1061.19,2,2
1061.19,2,2
1061.19,2,2
1061.19,1,1
1061.19,1,1
1061.19,2,2
1061.2,2,3
1061.2,2,1
1061.2,1,1
1061.2,1,1
1061.2,0,1
1061.21,1,2
1061.21,2,2
1061.21,1,1
1061.21,2,2
1061.21,1,2
1061.21,2,2
1061.21,3,2
1061.22,1,1
1061.22,1,0
1061.22,0,2
1061.22,2,1
1061.22,1,1
1061.23,1,1
1061.23,1,1
1061.23,1,2
1061.23,4,4
1061.23,4,1
1061.23,0,0
1061.23,0,0
1061.24,1,1
1061.24,2,2
1061.24,2,2
1061.24,1,0
1061.24,0,1
1061.25,3,6
1061.25,5,2
1061.25,0,0
1061.25,0,0
1061.25,1,1
1061.25,1,1
1061.25,3,3
1061.26,2,1
1061.26,0,2
1061.26,1,1
1061.26,1,1
1061.27,0,1
1061.27,1,1
1061.27,2,2
1061.27,2,2
1061.27,2,2
1061.28,2,2
1061.28,2,1
1061.28,2,2
1061.28,1,1
1061.28,1,0
1061.28,0,1
1061.28,1,1
1061.29,1,1
1061.29,1,1
1061.29,1,1
1061.29,2,2
1061.29,2,3
1061.3,3,2
1061.3,1,1
1061.3,0,0
1061.3,1,1
1061.3,2,2
1061.3,2,2
1061.3,1,2
1061.31,2,2
1061.31,2,2
1061.31,1,1
1061.31,1,1
1061.32,1,0
1061.32,1,1
1061.32,1,2
1061.32,2,2
1061.32,1,1
1061.32,1,2
1061.32,2,2
1061.33,1,1
1061.33,1,1
1061.33,2,3
1061.33,4,2
1061.33,1,0
1061.34,0,0
1061.34,0,1
1061.34,3,6
1061.34,6,4
1061.34,1,0
1061.34,0,0
1061.34,0,0
1061.35,1,2
1061.35,2,2
1061.35,2,1
1061.35,0,1
1061.35,2,3
1061.36,3,2
1061.36,1,1
1061.36,0,1
1061.36,2,2
1061.36,2,1
1061.37,1,1
1061.37,1,0
1061.37,2,2
1061.37,2,1
1061.37,1,1
1061.37,1,1
1061.37,1,0
1061.38,1,1
1061.38,1,1
1061.38,1,1
1061.38,2,2
1061.39,3,3
1061.39,2,1
1061.39,1,1
1061.39,1,1
1061.39,0,1
1061.39,1,1
1061.39,1,1
1061.4,2,3
1061.4,3,2
1061.4,2,1
1061.4,1,0
1061.4,0,1
1061.41,1,2
1061.41,2,2
1061.41,2,2
1061.41,2,2
1061.41,1,1
1061.41,1,2
1061.41,2,2
1061.42,1,1
1061.42,1,1
1061.42,1,1
1061.42,0,1
1061.42,1,0
1061.43,0,1
1061.43,2,4
1061.43,4,4
1061.43,2,1
1061.43,1,2
1061.44,3,2
1061.44,1,0
1061.44,1,1
1061.44,2,1
1061.44,0,0
1061.44,1,2
1061.44,2,2
1061.45,2,1
1061.45,0,0
1061.45,0,0
1061.45,0,2
1061.46,2,2
1061.46,3,2
1061.46,3,3
1061.46,3,3
1061.46,3,1
1061.46,0,0
1061.46,0,0
1061.47,1,1
1061.47,1,2
1061.47,2,2
1061.47,2,2
1061.47,2,1
1061.48,0,0
1061.48,0,2
1061.48,2,2
1061.48,2,2
1061.48,2,2
1061.48,2,2
1061.48,1,1
1061.49,1,2
1061.49,2,1
1061.49,2,2
1061.49,2,2
1061.49,2,1
1061.5,1,2
1061.5,2,2
1061.5,1,0
1061.5,0,0
1061.5,1,1
1061.5,1,2
1061.5,2,2
1061.51,2,1
1061.51,0,0
1061.51,1,5
1061.51,5,4
1061.52,2,1
1061.52,0,0
1061.52,0,0
1061.52,0,1
1061.52,1,1
1061.53,1,0
1061.53,1,1
1061.53,1,2
1061.53,2,2
1061.53,2,1
1061.53,1,1
1061.53,1,1
1061.54,2,2
1061.54,2,2
1061.54,2,2
1061.54,2,3
1061.54,3,2
1061.55,1,0
1061.55,0,1
1061.55,1,1
1061.55,1,0
1061.55,1,1
1061.55,1,2
1061.55,2,2
1061.56,1,1
1061.56,2,2
1061.56,2,2
1061.56,2,1
1061.56,1,2
1061.57,2,2
1061.57,2,2
1061.57,2,2
1061.57,1,1
1061.57,1,1
1061.57,2,2
1061.57,3,2
1061.58,2,1
1061.58,1,1
1061.58,0,0
1061.58,1,1
1061.59,2,2
1061.59,2,1
1061.59,1,1
1061.59,2,2
1061.59,3,2
1061.59,2,2
1061.59,1,1
1061.6,1,1
1061.6,1,1
1061.6,0,0
1061.6,2,2
1061.6,1,1
1061.61,1,1
1061.61,1,1
1061.61,1,0
1061.61,1,2
1061.61,2,1
1061.62,1,1
1061.62,1,2
1061.62,3,4
1061.62,2,1
1061.62,0,0
1061.62,1,1
1061.62,2,2
1061.63,1,1
1061.63,1,1
1061.63,2,2
1061.63,2,2
1061.63,2,2
1061.64,2,2
1061.64,2,1
1061.64,1,1
1061.64,1,1
1061.64,1,2
1061.64,2,2
1061.64,2,2
1061.65,2,2
1061.65,2,2
1061.65,1,1
1061.65,1,1
1061.66,1,1
1061.66,1,0
1061.66,0,1
1061.66,1,3
1061.66,3,2
1061.66,1,0
1061.66,1,1
1061.67,1,1
1061.67,2,2
1061.67,2,2
1061.67,3,2
1061.67,1,1
1061.68,1,1
1061.68,1,1
1061.68,1,0
1061.68,0,1
1061.68,1,1
1061.68,1,2
1061.68,2,2
1061.69,2,2
1061.69,1,1
1061.69,1,1
1061.69,1,1
1061.69,1,2
1061.7,2,3
1061.7,3,2
1061.7,1,1
1061.7,0,0
1061.71,1,1
1061.71,1,1
1061.71,1,2
1061.71,2,2
1061.71,2,1
1061.71,1,2
1061.71,2,2
1061.71,2,2
1061.72,1,1
1061.72,1,2
1061.72,2,2
1061.72,1,0
1061.73,0,0
1061.73,2,4
1061.73,5,3
1061.73,1,0
1061.73,0,0
1061.73,1,3
1061.73,3,2
1061.74,2,1
1061.74,1,1
1061.74,0,0
1061.74,0,0
1061.74,0,1
1061.75,1,1
1061.75,2,2
1061.75,2,2
1061.75,2,2
1061.75,2,2
1061.75,2,2
1061.75,2,1
1061.76,1,1
1061.76,1,1
1061.76,1,1
1061.76,1,1
1061.76,0,1
1061.77,1,1
1061.77,2,3
1061.77,3,2
1061.77,0,0
1061.77,0,0
1061.77,1,1
1061.77,2,2
1061.78,2,2
1061.78,1,1
1061.78,2,2
1061.78,2,2
1061.79,2,2
1061.79,2,1
1061.79,1,1
1061.79,1,1
1061.79,1,1
1061.8,1,1
1061.8,1,1
1061.8,1,0
1061.8,1,2
1061.8,2,2
1061.8,2,1
1061.8,1,1
1061.81,1,1
1061.81,1,1
1061.81,2,2
1061.81,2,2
1061.81,2,2
1061.82,2,2
1061.82,1,1
1061.82,1,1
1061.82,2,2
1061.82,3,3
1061.82,1,0
1061.82,1,1
1061.83,0,0
1061.83,0,2
1061.83,3,4
1061.83,4,3
1061.83,1,1
1061.84,0,0
1061.84,0,1
1061.84,1,1
1061.84,1,2
1061.84,2,2
1061.84,2,2
1061.84,1,1
1061.85,2,2
1061.85,2,2
1061.85,2,2
1061.85,1,1
1061.86,1,1
1061.86,1,2
1061.86,2,2
1061.86,3,2
1061.86,1,1
1061.86,1,0
1061.86,1,1
1061.87,1,2
1061.87,1,1
1061.87,0,0
1061.87,0,1
1061.87,3,5
1061.88,6,3
1061.88,2,1
1061.88,0,0
1061.88,1,2
1061.88,2,1
1061.89,1,0
1061.89,0,0
1061.89,0,0
1061.89,1,1
1061.89,1,2
1061.89,2,2
1061.89,2,3
1061.9,3,2
1061.9,2,1
1061.9,0,0
1061.9,0,0
1061.9,1,2
1061.91,2,2
1061.91,2,2
1061.91,2,2
1061.91,1,1
1061.91,1,2
1061.91,2,2
1061.91,3,2
1061.92,1,1
1061.92,1,1
1061.92,1,1
1061.92,0,0
1061.93,1,2
1061.93,3,2
1061.93,1,1
1061.93,1,1
1061.93,0,1
1061.93,2,2
1061.93,2,1
1061.94,1,1
1061.94,1,0
1061.94,1,1
1061.94,2,4
1061.94,4,3
1061.95,1,0
1061.95,0,0
1061.95,0,1
1061.95,2,2
1061.95,3,1
1061.96,1,1
1061.96,1,1
1061.96,1,1
1061.96,1,0
1061.96,1,1
1061.96,1,0
1061.96,1,1
1061.97,2,2
1061.97,2,2
1061.97,2,2
1061.97,2,2
1061.98,3,2
1061.98,2,1
1061.98,1,1
1061.98,1,0
1061.98,0,0
1061.98,0,0
1061.98,1,2
1061.98,3,3
1061.99,2,1
1061.99,2,2
1061.99,2,1
1061.99,2,2
1062,2,2
1062,1,1
1062,1,1
1062,2,2
1062,2,2
1062,2,2
1062,2,1
1062.01,1,1
1062.01,1,1
1062.01,1,2
1062.01,1,1
1062.01,0,0
1062.02,1,1
1062.02,1,1
1062.02,2,2
1062.02,1,1
1062.02,1,1
1062.02,2,2
1062.02,1,1
1062.03,1,2
1062.03,2,2
1062.03,1,1
1062.03,1,2
1062.03,2,3
1062.04,3,1
1062.04,0,1
1062.04,2,2
1062.04,1,1
1062.05,1,1
1062.05,1,1
1062.05,1,1
1062.05,1,1
1062.05,1,0
1062.05,0,0
1062.05,1,4
1062.06,4,4
1062.06,2,1
1062.06,0,0
1062.06,0,0
1062.06,1,1
1062.07,1,1
1062.07,1,1
1062.07,1,1
1062.07,1,1
1062.07,1,1
1062.07,1,1
1062.07,0,1
1062.08,1,1
1062.08,1,1
1062.08,1,1
1062.08,1,1
1062.08,2,2
1062.09,3,3
1062.09,2,2
1062.09,1,1
1062.09,1,1
1062.09,1,2
1062.09,2,2
1062.09,2,1
1062.1,1,1
1062.1,2,3
1062.1,2,2
1062.1,2,2
1062.1,1,1
1062.11,1,0
1062.11,0,1
1062.11,1,2
1062.11,2,2
1062.11,2,2
1062.11,2,1
1062.11,2,2
1062.12,2,2
1062.12,1,1
1062.12,1,1
1062.12,1,0
1062.13,0,1
1062.13,1,2
1062.13,2,2
1062.13,2,2
1062.13,2,3
1062.14,2,1
1062.14,1,1
1062.14,0,1
1062.14,1,1
1062.14,1,2
1062.14,2,1
1062.14,1,1
1062.15,2,1
1062.15,1,2
1062.15,2,2
1062.15,2,2
1062.15,2,2
1062.16,2,2
1062.16,1,1
1062.16,0,0
1062.16,0,1
1062.16,2,4
1062.16,5,2
1062.16,0,0
1062.17,1,1
1062.17,1,1
1062.17,2,2
1062.17,2,2
1062.18,2,2
1062.18,2,2
1062.18,1,1
1062.18,1,0
1062.18,1,1
1062.18,2,3
1062.18,2,1
1062.18,0,0
1062.19,0,0
1062.19,1,2
1062.19,2,2
1062.19,2,2
1062.2,2,2
1062.2,1,0
1062.2,1,1
1062.2,2,3
1062.2,3,2
1062.2,1,1
1062.2,1,0
1062.21,0,1
1062.21,1,2
1062.21,2,3
1062.21,3,3
1062.21,2,0
1062.22,0,0
1062.22,0,1
1062.22,2,2
1062.22,1,1
1062.22,1,1
1062.23,2,3
1062.23,3,2
1062.23,1,0
1062.23,0,0
1062.23,1,2
1062.23,3,4
1062.23,3,3
1062.24,1,0
1062.24,1,1
1062.24,2,1
1062.24,1,1
1062.25,1,1
1062.25,1,1
1062.25,1,1
1062.25,0,0
1062.25,0,0
1062.25,0,2
1062.25,3,5
1062.26,5,3
1062.26,0,0
1062.26,0,1
1062.26,2,3
1062.26,2,2
1062.27,1,1
1062.27,0,0
1062.27,1,1
1062.27,1,2
1062.27,2,1
1062.27,1,1
1062.27,1,2
1062.28,2,2
1062.28,3,3
1062.28,1,1
1062.28,1,1
1062.28,1,0
1062.29,0,0
1062.29,0,1
1062.29,2,3
1062.29,3,3
1062.29,2,0
1062.3,0,1
1062.3,2,2
1062.3,2,1
1062.3,0,0
1062.3,1,1
1062.3,2,2
1062.3,2,2
1062.31,2,2
1062.31,2,2
1062.31,1,1
1062.31,1,2
1062.32,2,2
1062.32,2,2
1062.32,2,2
1062.32,1,1
1062.32,1,1
1062.32,0,0
1062.32,1,1
1062.33,1,1
1062.33,1,1
1062.33,1,2
1062.33,2,2
1062.33,2,2
1062.34,2,2
1062.34,2,2
1062.34,2,1
1062.34,1,1
1062.34,1,1
1062.34,1,1
1062.34,0,0
1062.35,1,1
1062.35,1,3
1062.35,5,6
1062.35,4,2
1062.35,0,0
1062.36,0,1
1062.36,0,1
1062.36,1,1
1062.36,1,2
1062.36,2,2
1062.36,2,2
1062.36,1,1
1062.37,1,2
1062.37,2,2
1062.37,2,2
1062.37,2,2
1062.37,1,1
1062.38,0,1
1062.38,2,2
1062.38,1,1
1062.38,1,1
1062.39,1,1
1062.39,1,1
1062.39,2,2
1062.39,2,3
1062.39,2,2
1062.39,1,1
1062.39,2,2
1062.4,2,2
1062.4,2,1
1062.4,1,1
1062.4,1,1
1062.4,1,0
1062.41,0,0
1062.41,1,2
1062.41,3,3
1062.41,3,2
1062.41,1,1
1062.41,0,0
1062.41,0,1
1062.42,1,1
1062.42,1,1
1062.42,1,1
1062.42,1,2
1062.42,2,2
1062.43,2,2
1062.43,2,2
1062.43,2,2
1062.43,2,1
1062.43,1,1
1062.43,1,1
1062.43,1,1
1062.44,0,1
1062.44,1,1
1062.44,1,2
1062.44,3,3
1062.45,2,1
1062.45,0,0
1062.45,1,1
1062.45,2,2
1062.45,2,2
1062.45,2,2
1062.45,2,1
1062.45,1,1
1062.46,0,1
1062.46,1,2
1062.46,3,3
1062.46,3,2
1062.47,1,0
1062.47,1,1
1062.47,2,2
1062.47,2,1
1062.47,1,0
1062.48,0,0
1062.48,1,1
1062.48,1,1
1062.48,1,2
1062.48,2,2
1062.48,2,2
1062.48,2,2
1062.49,2,2
1062.49,2,2
1062.49,1,1
1062.49,1,1
1062.49,0,1
1062.5,1,2
1062.5,2,2
1062.5,1,2
1062.5,2,2
1062.5,1,1
1062.5,1,1
1062.5,2,2
1062.51,2,1
1062.51,1,1
1062.51,1,2
1062.51,3,4
1062.52,3,2
1062.52,1,0
1062.52,0,0
1062.52,1,1
1062.52,1,1
1062.52,1,0
1062.52,1,1
1062.53,1,1
1062.53,1,2
1062.53,2,1
1062.53,0,0
1062.53,2,1
1062.54,1,1
1062.54,2,2
1062.54,4,4
1062.54,5,3
1062.54,2,2
1062.54,2,0
1062.54,0,0
1062.55,0,1
1062.55,1,1
1062.55,2,2
1062.55,2,2
1062.55,1,1
1062.56,1,1
1062.56,2,2
1062.56,2,2
1062.56,2,2
1062.56,2,2
1062.57,1,1
1062.57,2,1
1062.57,1,0
1062.57,0,1
1062.57,1,1
1062.57,1,1
1062.57,2,2
1062.58,2,2
1062.58,2,2
1062.58,2,2
1062.58,2,1
1062.59,1,2
1062.59,1,1
1062.59,1,1
1062.59,1,1
1062.59,1,1
1062.59,0,1
1062.59,1,2
1062.6,2,2
1062.6,2,2
1062.6,2,2
1062.6,1,1
1062.6,1,1
1062.61,1,1
1062.61,0,1
1062.61,1,1
1062.61,1,2
1062.61,2,2
1062.61,1,1
1062.61,1,1
1062.62,1,1
1062.62,2,2
1062.62,2,2
1062.62,2,2
1062.62,3,2
1062.63,1,1
1062.63,0,0
1062.63,1,1
1062.63,2,3
1062.64,2,2
1062.64,0,0
1062.64,0,0
1062.64,2,5
1062.64,5,3
1062.64,1,0
1062.64,0,0
1062.65,0,2
1062.65,2,2
1062.65,2,1
1062.65,0,0
1062.65,0,0
1062.66,0,2
1062.66,2,3
1062.66,3,2
1062.66,2,1
1062.66,1,2
1062.66,2,2
1062.66,2,2
1062.67,2,2
1062.67,2,1
1062.67,1,1
1062.67,1,1
1062.67,1,1
1062.68,1,1
1062.68,0,0
1062.68,1,2
1062.68,3,2
1062.68,3,2
1062.68,1,0
1062.68,0,0
1062.69,1,2
1062.69,3,2
1062.69,2,1
1062.69,0,0
1062.69,1,1
1062.7,2,2
1062.7,1,1
1062.7,1,1
1062.7,1,2
1062.7,2,2
1062.7,2,2
1062.7,1,1
1062.71,1,1
1062.71,2,2
1062.71,2,2
1062.71,1,1
1062.72,1,1
1062.72,1,2
1062.72,2,2
1062.72,2,3
1062.72,3,2
1062.73,1,1
1062.73,1,2
1062.73,2,1
1062.73,0,0
1062.73,1,1
1062.73,0,0
1062.73,0,1
1062.74,2,2
1062.74,2,2
1062.74,1,0
1062.74,0,2
1062.74,3,6
1062.75,6,3
1062.75,0,0
1062.75,0,0
1062.75,0,1
1062.75,1,1
1062.75,1,1
1062.75,1,1
1062.76,1,1
1062.76,0,1
1062.76,1,1
1062.76,1,2
1062.76,2,2
1062.77,2,1
1062.77,1,1
1062.77,2,2
1062.77,3,3
1062.77,2,1
1062.77,0,0
1062.77,1,1
1062.78,2,2
1062.78,2,2
1062.78,1,1
1062.78,1,1
1062.79,1,1
1062.79,1,1
1062.79,2,2
1062.79,2,2
1062.79,1,2
1062.79,2,2
1062.79,2,2
1062.8,2,1
1062.8,1,1
1062.8,1,2
1062.8,2,2
1062.8,2,2
1062.81,1,1
1062.81,1,1
1062.81,1,2
1062.81,2,2
1062.81,2,2
1062.82,1,1
1062.82,2,2
1062.82,2,2
1062.82,2,1
1062.82,1,1
1062.82,2,2
1062.82,2,2
1062.83,2,2
1062.83,1,1
1062.83,1,1
1062.83,1,2
1062.84,3,3
1062.84,1,1
1062.84,1,1
1062.84,1,1
1062.84,1,1
1062.84,1,1
1062.84,0,1
1062.84,1,0
1062.85,1,1
1062.85,2,2
1062.85,2,1
1062.85,1,0
1062.86,1,2
1062.86,2,3
1062.86,4,4
1062.86,4,1
1062.86,0,0
1062.86,0,0
1062.86,1,1
1062.87,1,1
1062.87,1,1
1062.87,2,2
1062.87,2,2
1062.87,2,1
1062.88,1,1
1062.88,1,1
1062.88,1,1
1062.88,1,1
1062.88,1,1
1062.88,2,2
1062.88,2,2
1062.89,2,2
1062.89,2,2
1062.89,2,1
1062.89,1,1
1062.89,1,1
1062.9,1,1
1062.9,1,1
1062.9,1,1
1062.9,1,1
1062.91,1,1
1062.91,1,0
1062.91,1,1
1062.91,1,1
1062.91,1,1
1062.91,1,2
1062.91,2,2
1062.92,2,3
1062.92,3,3
1062.92,3,1
1062.92,0,0
1062.92,0,1
1062.93,1,1
1062.93,1,1
1062.93,1,1
1062.93,1,1
1062.93,1,0
1062.93,1,1
1062.93,2,1
1062.94,1,0
1062.94,0,1
1062.94,2,3
1062.94,3,2
1062.94,3,3
1062.95,3,2
1062.95,1,0
1062.95,0,1
1062.95,2,2
1062.95,2,1
1062.95,1,2
1062.95,2,1
1062.96,1,1
1062.96,0,1
1062.96,1,2
1062.96,2,2
1062.96,1,0
1062.97,0,1
1062.97,3,5
1062.97,6,3
1062.97,1,1
1062.97,1,1
1062.97,1,1
1062.97,1,1
1062.98,0,0
1062.98,1,1
1062.98,1,2
1062.98,2,2
1062.99,2,1
1062.99,1,2
1062.99,2,2
1062.99,2,2
1062.99,2,2
1063,2,2
1063,1,0
1063,0,1
1063,2,3
1063,3,3
1063,1,0
1063,1,2
1063.01,2,1
1063.01,1,0
1063.01,1,1
1063.01,1,1
1063.01,1,1
1063.02,1,1
1063.02,0,1
1063.02,1,2
1063.02,2,2
1063.02,2,2
1063.02,1,2
1063.02,2,2
1063.03,2,2
1063.03,1,1
1063.03,1,2
1063.03,2,2
1063.03,2,2
1063.04,2,2
1063.04,2,1
1063.04,1,0
1063.04,1,2
1063.04,2,2
1063.04,1,1
1063.04,1,1
1063.05,2,1
1063.05,1,1
1063.05,1,1
1063.05,1,1
1063.06,1,1
1063.06,1,1
1063.06,1,1
1063.06,1,1
1063.06,1,1
1063.07,0,1
1063.07,2,2
1063.07,2,1
1063.07,1,1
1063.07,2,2
1063.07,2,2
1063.07,2,2
1063.08,2,2
1063.08,1,1
1063.08,1,2
1063.08,2,2
1063.08,3,5
1063.09,5,3
1063.09,0,0
1063.09,-1,0
1063.09,0,0
1063.09,0,0
1063.09,0,1
1063.09,2,4
1063.1,5,5
1063.1,4,2
1063.1,1,0
1063.1,0,0
1063.11,1,2
1063.11,2,2
1063.11,2,2
1063.11,1,1
1063.11,1,1
1063.11,1,1
1063.11,0,1
1063.12,2,2
1063.12,2,2
1063.12,2,1
1063.12,1,2
1063.12,2,2
1063.13,2,2
1063.13,2,2
1063.13,1,1
1063.13,1,1
1063.13,1,2
1063.13,2,2
1063.13,2,2
1063.14,2,2
1063.14,1,0
1063.14,0,1
1063.14,3,3
1063.14,3,2
1063.15,1,1
1063.15,0,0
1063.15,1,1
1063.15,2,3
1063.15,3,2
1063.16,0,0
1063.16,0,2
1063.16,1,1
1063.16,1,1
1063.16,1,1
1063.16,1,1
1063.16,1,1
1063.17,1,1
1063.17,1,0
1063.17,1,2
1063.17,2,2
1063.18,2,2
1063.18,1,1
1063.18,2,2
1063.18,2,2
1063.18,2,2
1063.18,2,2
1063.18,1,1
1063.19,1,1
1063.19,1,1
1063.19,1,1
1063.19,0,1
1063.19,0,1
1063.2,1,1
1063.2,1,1
1063.2,2,5
1063.2,4,3
1063.2,1,0
1063.2,0,0
1063.2,0,1
1063.21,2,2
1063.21,2,2
1063.21,3,2
1063.21,2,2
1063.21,1,1
1063.22,1,0
1063.22,0,0
1063.22,1,1
1063.22,2,2
1063.22,1,1
1063.22,2,2
1063.22,2,2
1063.23,2,2
1063.23,2,2
1063.23,2,1
1063.23,1,1
1063.23,1,1
1063.24,0,1
1063.24,1,1
1063.24,1,1
1063.24,2,2
1063.25,2,3
1063.25,3,2
1063.25,2,1
1063.25,1,0
1063.25,0,1
1063.25,1,1
1063.25,1,1
1063.26,1,1
1063.26,1,1
1063.26,0,1
1063.26,1,2
1063.26,3,2
1063.27,2,1
1063.27,1,0
1063.27,0,1
1063.27,1,1
1063.27,1,2
1063.27,2,1
1063.27,1,2
1063.28,2,2
1063.28,2,1
1063.28,1,2
1063.28,2,2
1063.28,2,2
1063.29,2,1
1063.29,1,1
1063.29,1,1
1063.29,2,2
1063.29,2,2
1063.29,2,2
1063.29,2,2
1063.3,1,1
1063.3,1,0
1063.3,1,1
1063.3,1,1
1063.31,1,2
1063.31,2,2
1063.31,2,2
1063.31,2,2
1063.31,1,1
1063.31,1,1
1063.31,2,3
1063.32,3,2
1063.32,2,1
1063.32,0,0
1063.32,1,2
1063.32,2,1
1063.33,0,0
1063.33,1,1
1063.33,2,2
1063.33,1,1
1063.33,0,0
1063.34,1,2
1063.34,2,1
1063.34,1,0
1063.34,1,3
1063.34,5,4
1063.34,3,1
1063.34,0,0
1063.35,0,1
1063.35,1,1
1063.35,1,1
1063.35,1,2
1063.35,2,2
1063.36,1,1
1063.36,0,1
1063.36,1,1
1063.36,2,2
1063.36,3,3
1063.36,2,2
1063.36,1,1
1063.37,1,1
1063.37,0,1
1063.37,1,1
1063.37,2,2
1063.38,2,2
1063.38,2,2
1063.38,2,1
1063.38,1,1
1063.38,1,1
1063.38,1,2
1063.38,2,2
1063.39,2,2
1063.39,2,2
1063.39,1,1
1063.39,1,1
1063.39,1,2
1063.4,2,2
1063.4,2,1
1063.4,1,1
1063.4,1,2
1063.4,2,2
1063.41,2,2
1063.41,2,2
1063.41,2,1
1063.41,1,0
1063.41,0,0
1063.41,1,2
1063.41,2,3
1063.42,2,2
1063.42,1,1
1063.42,1,1
1063.42,2,2
1063.42,2,1
1063.43,1,1
1063.43,2,2
1063.43,2,2
1063.43,2,2
1063.43,1,2
1063.43,2,2
1063.43,1,1
1063.44,0,0
1063.44,0,0
1063.44,1,3
1063.44,5,3
1063.45,1,0
1063.45,0,1
1063.45,1,2
1063.45,2,2
1063.45,2,2
1063.45,1,1
1063.45,2,0
1063.46,0,0
1063.46,0,2
1063.46,3,5
1063.46,4,2
1063.46,0,0
1063.47,0,0
1063.47,1,2
1063.47,2,2
1063.47,2,2
1063.47,1,1
1063.47,1,1
1063.47,1,1
1063.48,0,1
1063.48,1,1
1063.48,1,1
1063.48,1,2
1063.48,2,2
1063.49,2,1
1063.49,1,1
1063.49,1,1
1063.49,1,2
1063.5,2,2
1063.5,1,2
1063.5,2,1
1063.5,1,2
1063.5,3,2
1063.5,1,0
1063.5,1,1
1063.51,1,1
1063.51,2,2
1063.51,2,2
1063.51,2,1
1063.51,1,1
1063.52,2,2
1063.52,2,2
1063.52,1,2
1063.52,3,2
1063.52,1,1
1063.52,1,1
1063.52,1,1
1063.53,1,1
1063.53,0,0
1063.53,1,1
1063.53,1,1
1063.53,1,2
1063.54,2,2
1063.54,2,2
1063.54,2,2
1063.54,2,1
1063.54,2,2
1063.54,2,2
1063.54,2,1
1063.55,1,1
1063.55,1,1
1063.55,0,1
1063.55,1,1
1063.55,2,2
1063.56,2,2
1063.56,2,2
1063.56,2,2
1063.56,1,1
1063.56,1,1
1063.56,0,0
1063.56,0,2
1063.57,2,5
1063.57,5,3
1063.57,0,0
1063.57,0,1
1063.58,1,2
1063.58,2,2
1063.58,1,1
1063.58,2,1
1063.58,1,1
1063.59,1,1
1063.59,2,2
1063.59,3,2
1063.59,2,2
1063.59,1,1
1063.59,1,2
1063.59,2,2
1063.6,3,2
1063.6,2,1
1063.6,1,1
1063.6,0,0
1063.6,0,0
1063.61,1,1
1063.61,1,1
1063.61,2,2
1063.61,2,2
1063.61,3,4
1063.61,3,2
1063.61,1,1
1063.62,1,0
1063.62,0,0
1063.62,1,1
1063.62,1,1
1063.62,1,2
1063.63,2,2
1063.63,2,2
1063.63,2,2
1063.63,1,1
1063.63,2,2
1063.63,3,2
1063.63,2,2
1063.64,2,2
1063.64,1,1
1063.64,1,1
1063.64,1,1
1063.65,1,0
1063.65,0,1
1063.65,1,1
1063.65,1,3
1063.65,3,2
1063.65,1,1
1063.65,2,3
1063.66,2,1
1063.66,0,0
1063.66,0,1
1063.66,3,5
1063.66,5,3
1063.67,1,0
1063.67,0,0
1063.67,1,1
1063.67,1,2
1063.67,2,3
1063.68,2,1
1063.68,0,0
1063.68,1,2
1063.68,2,2
1063.68,1,1
1063.68,1,2
1063.68,2,2
1063.69,2,2
1063.69,2,2
1063.69,2,1
1063.69,1,0
1063.7,0,1
1063.7,1,2
1063.7,2,3
1063.7,3,2
1063.7,1,1
1063.7,0,0
1063.7,0,1
1063.71,2,1
1063.71,1,1
1063.71,1,2
1063.71,2,2
1063.71,2,2
1063.72,3,2
1063.72,2,2
1063.72,2,2
1063.72,0,0
1063.72,0,1
1063.72,2,2
1063.72,3,2
1063.73,1,1
1063.73,1,1
1063.73,2,3
1063.73,3,1
1063.73,0,0
1063.74,1,1
1063.74,2,3
1063.74,2,1
1063.74,1,0
1063.74,1,1
1063.74,1,1
1063.74,2,5
1063.75,5,3
1063.75,0,0
1063.75,0,0
1063.75,0,1
1063.75,2,2
1063.76,2,1
1063.76,1,2
1063.76,2,2
1063.76,1,1
1063.77,1,1
1063.77,1,1
1063.77,2,3
1063.77,2,2
1063.77,2,1
1063.77,1,2
1063.77,2,2
1063.78,2,2
1063.78,3,2
1063.78,1,1
1063.78,1,0
1063.78,0,0
1063.79,1,1
1063.79,1,1
1063.79,2,2
1063.79,3,3
1063.79,2,1
1063.79,1,1
1063.79,1,1
1063.8,1,0
1063.8,1,1
1063.8,1,1
1063.8,0,1
1063.8,1,1
1063.81,1,2
1063.81,2,2
1063.81,3,3
1063.81,2,2
1063.81,2,2
1063.81,1,1
1063.81,0,0
1063.82,0,1
1063.82,1,1
1063.82,1,1
1063.82,1,1
1063.82,2,1
1063.83,1,1
1063.83,1,1
1063.83,1,1
1063.83,1,1
1063.84,0,2
1063.84,2,1
1063.84,0,0
1063.84,1,1
1063.84,2,2
1063.84,2,2
1063.84,3,3
1063.85,2,2
1063.85,1,0
1063.85,0,1
1063.85,2,2
1063.85,1,1
1063.86,1,1
1063.86,1,1
1063.86,2,2
1063.86,2,2
1063.86,1,1
1063.86,1,1
1063.86,2,2
1063.87,3,3
1063.87,2,1
1063.87,1,1
1063.87,1,1
1063.87,0,0
1063.88,1,2
1063.88,3,3
1063.88,1,1
1063.88,0,1
1063.88,0,0
1063.88,1,1
1063.88,1,1
1063.89,1,2
1063.89,1,1
1063.89,2,2
1063.89,2,2
1063.9,2,2
1063.9,2,2
1063.9,2,1
1063.9,1,1
1063.9,1,1
1063.9,1,0
1063.9,1,1
1063.91,2,2
1063.91,2,2
1063.91,2,1
1063.91,1,1
1063.91,1,1
1063.92,1,1
1063.92,0,1
1063.92,1,1
1063.92,1,2
1063.92,3,4
1063.93,3,3
1063.93,1,0
1063.93,0,0
1063.93,0,1
1063.93,2,1
1063.93,1,1
1063.93,1,1
1063.94,2,2
1063.94,2,2
1063.94,2,2
1063.94,2,2
1063.94,3,2
1063.95,1,0
1063.95,0,1
1063.95,1,2
1063.95,2,3
1063.95,3,2
1063.95,1,1
1063.95,0,0
1063.96,0,2
1063.96,2,2
1063.96,2,1
1063.96,1,1
1063.97,0,0
1063.97,0,0
1063.97,0,2
1063.97,3,2
1063.97,2,1
1063.97,1,1
1063.97,2,2
1063.98,1,1
1063.98,1,2
1063.98,2,3
1063.98,4,3
1063.98,2,0
1063.99,0,0
1063.99,0,0
1063.99,1,2
1063.99,3,3
1063.99,2,1
1063.99,0,0
1063.99,2,5
1064,6,3
1064,1,0
1064,-1,0
1064,0,2
1064,2,1
1064.01,0,0
1064.01,1,2
1064.01,3,4
1064.01,3,1
1064.01,0,1
1064.02,3,3
1064.02,2,1
1064.02,0,0
1064.02,0,0
1064.02,1,1
1064.02,2,2
1064.02,2,2
1064.03,2,2
1064.03,2,1
1064.03,1,1
1064.03,2,2
1064.04,1,0
1064.04,0,2
1064.04,5,5
1064.04,4,0
1064.04,-4,-3
1064.04,-1,1
1064.04,3,4
1064.05,2,-1
1064.05,-4,-5
1064.05,-2,4
1064.05,8,8
1064.05,8,10
1064.06,11,10
1064.06,12,16
1064.06,8,-9
1064.06,-19,-21
1064.06,-18,-10
1064.06,0,5
1064.06,10,14
1064.07,17,17
1064.07,12,6
1064.07,0,-4
1064.07,-5,-5
1064.08,-2,2
1064.08,7,8
1064.08,4,0
1064.08,-4,-6
1064.08,-4,4
1064.08,14,20
1064.08,22,16
1064.09,0,-12
1064.09,-24,-33
1064.09,-39,-36
1064.09,-16,8
1064.09,23,34
1064.1,34,22
1064.1,6,-3
1064.1,1,11
1064.1,15,8
1064.11,-7,-16
1064.11,-12,-1
1064.11,5,4
1064.11,2,3
1064.11,6,6
1064.11,9,9
1064.11,0,-11
1064.12,-11,-7
1064.12,-5,-7
1064.12,-6,-1
1064.12,4,10
1064.12,13,12
1064.13,4,-3
1064.13,-2,0
1064.13,1,7
1064.13,16,26
1064.13,29,17
1064.13,4,-1
1064.13,-5,-11
1064.14,-11,-3
1064.14,3,8
1064.14,5,-6
1064.14,-15,-22
1064.15,-20,-9
1064.15,0,3
1064.15,6,7
1064.15,7,7
1064.15,7,2
1064.15,0,-1
1064.15,0,4
1064.16,8,11
1064.16,10,10
1064.16,8,6
1064.16,6,4
1064.16,2,0
1064.17,-1,-3
1064.17,-3,-4
1064.17,-3,-4
1064.17,-4,-3
1064.17,-3,0
1064.18,5,8
1064.18,8,5
1064.18,5,4
1064.18,4,3
1064.18,4,3
1064.18,2,1
1064.18,0,-1
1064.19,-2,-2
1064.19,-2,0
1064.19,2,2
1064.19,1,0
1064.2,1,2
1064.2,4,6
1064.2,7,6
1064.2,5,5
1064.2,1,-1
1064.2,-2,-2
1064.2,-1,0
1064.21,0,1
1064.21,2,2
1064.21,1,0
1064.21,0,0
1064.21,1,3
1064.22,4,5
1064.22,6,4
1064.22,2,0
1064.22,0,2
1064.22,3,1
1064.22,0,0
1064.22,-1,0
1064.23,1,3
1064.23,4,1
1064.23,-1,-2
1064.23,0,2
1064.23,4,4
1064.24,4,2
1064.24,1,3
1064.24,3,3
1064.24,2,0
1064.24,0,1
1064.24,3,4
1064.24,4,1
1064.25,-2,-3
1064.25,0,7
1064.25,10,8
1064.25,2,-2
1064.26,-4,-3
1064.26,-1,-1
1064.26,0,1
1064.26,2,1
1064.26,0,1
1064.27,2,2
1064.27,2,6
1064.27,10,10
1064.27,7,5
1064.27,4,1
1064.27,-1,-4
1064.27,-5,-3
1064.28,0,0
1064.28,0,-1
1064.28,0,0
1064.28,3,3
1064.28,3,5
1064.29,6,6
1064.29,5,2
1064.29,1,0
1064.29,-1,-2
1064.29,-2,-1
1064.29,1,4
1064.29,6,7
1064.3,6,4
1064.3,2,0
1064.3,-3,-3
1064.3,-3,-4
1064.31,-4,-1
1064.31,0,3
1064.31,5,5
1064.31,5,4
1064.31,6,8
1064.31,8,5
1064.31,3,3
1064.32,2,1
1064.32,-1,-3
1064.32,-4,-3
1064.32,-1,0
1064.32,1,2
1064.33,4,3
1064.33,2,0
1064.33,0,1
1064.33,5,6
1064.33,7,5
1064.33,2,0
1064.33,0,0
1064.34,-1,0
1064.34,0,0
1064.34,0,1
1064.34,1,1
1064.34,1,2
1064.35,4,4
1064.35,4,5
1064.35,4,3
1064.35,2,0
1064.35,-1,-2
1064.36,-1,0
1064.36,0,1
1064.36,2,3
1064.36,4,3
1064.36,3,1
1064.36,0,0
1064.36,0,0
1064.37,2,3
1064.37,4,3
1064.37,3,2
1064.37,0,-1
1064.38,-1,0
1064.38,1,2
1064.38,3,3
1064.38,4,3
1064.38,2,3
1064.38,5,3
1064.38,1,0
1064.39,-1,-1
1064.39,-2,0
1064.39,1,2
1064.39,2,2
1064.39,2,2
1064.4,2,3
1064.4,3,2
1064.4,1,1
1064.4,1,1
1064.4,0,0
1064.4,1,0
1064.4,0,0
1064.41,1,2
1064.41,4,4
1064.41,5,4
1064.41,2,0
1064.41,0,0
1064.42,2,2
1064.42,1,1
1064.42,2,3
1064.42,3,3
1064.42,2,2
1064.42,1,0
1064.42,1,1
1064.43,2,1
1064.43,0,0
1064.43,0,0
1064.43,1,1
1064.44,1,1
1064.44,1,1
1064.44,2,2
1064.44,1,1
1064.44,1,1
1064.45,2,2
1064.45,3,3
1064.45,3,1
1064.45,1,0
1064.45,1,1
1064.45,1,1
1064.45,1,1
1064.46,1,2
1064.46,1,1
1064.46,1,2
1064.46,2,3
1064.46,2,1
1064.47,1,1
1064.47,1,2
1064.47,3,2
1064.47,2,1
1064.47,2,2
1064.47,2,2
1064.47,2,2
1064.48,1,1
1064.48,0,0
1064.48,0,1
1064.48,2,3
1064.48,3,2
1064.49,1,1
1064.49,1,1
1064.49,0,0
1064.49,0,0
1064.49,1,1
1064.49,1,2
1064.49,2,3
1064.5,2,2
1064.5,1,1
1064.5,2,3
1064.5,3,3
1064.51,2,1
1064.51,0,0
1064.51,1,2
1064.51,2,1
1064.51,1,0
1064.52,0,1
1064.52,1,1
1064.52,2,2
1064.52,1,0
1064.52,0,1
1064.52,1,2
1064.52,3,2
1064.53,1,1
1064.53,2,3
1064.53,3,3
1064.53,1,0
1064.53,0,0
1064.54,2,3
1064.54,3,1
1064.54,1,1
1064.54,1,1
1064.54,1,1
1064.54,1,0
1064.54,1,2
1064.55,3,7
1064.55,6,3
1064.55,0,-1
1064.55,0,0
1064.55,2,2
1064.56,1,1
1064.56,1,0
1064.56,0,1
1064.56,2,1
1064.56,1,1
1064.56,1,1
1064.56,2,2
1064.57,2,2
1064.57,2,2
1064.57,1,1
1064.57,0,1
1064.58,2,2
1064.58,3,3
1064.58,2,1
1064.58,0,1
1064.58,2,2
1064.58,2,2
1064.58,1,0
1064.59,1,0
1064.59,0,0
1064.59,0,3
1064.59,4,6
1064.59,6,4
1064.6,2,0
1064.6,0,0
1064.6,0,0
1064.6,1,1
1064.6,0,0
1064.61,1,1
1064.61,2,2
1064.61,2,2
1064.61,1,1
1064.61,1,2
1064.61,2,2
1064.61,2,3
1064.62,2,2
1064.62,2,1
1064.62,1,1
1064.62,1,1
1064.62,2,2
1064.63,1,0
1064.63,0,0
1064.63,3,4
1064.63,4,3
1064.63,2,1
1064.63,1,0
1064.63,0,0
1064.64,1,2
1064.64,3,2
1064.64,1,0
1064.64,1,2
1064.65,2,2
1064.65,2,3
1064.65,2,3
1064.65,1,0
1064.65,0,1
1064.65,2,2
1064.65,2,2
1064.66,1,1
1064.66,2,1
1064.66,1,1
1064.66,2,2
1064.66,2,2
1064.67,1,1
1064.67,1,1
1064.67,1,2
1064.67,2,2
1064.67,2,2
1064.67,2,2
1064.67,2,2
1064.68,2,2
1064.68,1,1
1064.68,0,0
1064.68,0,1
1064.68,1,1
1064.69,2,2
1064.69,3,2
1064.69,2,1
1064.69,1,1
1064.7,0,0
1064.7,1,1
1064.7,1,1
1064.7,1,2
1064.7,3,3
1064.7,3,2
1064.7,1,0
1064.7,0,3
1064.71,4,2
1064.71,2,0
1064.71,0,0
1064.71,0,0
1064.72,1,1
1064.72,0,1
1064.72,1,1
1064.72,2,2
1064.72,2,1
1064.72,1,1
1064.72,1,1
1064.73,2,2
1064.73,2,2
1064.73,1,2
1064.73,2,1
1064.73,1,2
1064.74,3,3
1064.74,2,2
1064.74,1,1
1064.74,0,0
1064.74,0,1
1064.74,2,2
1064.74,2,2
1064.75,2,2
1064.75,2,1
1064.75,1,1
1064.75,0,0
1064.75,1,1
1064.76,1,1
1064.76,1,2
1064.76,2,2
1064.76,3,3
1064.76,2,2
1064.76,2,3
1064.76,2,0
1064.77,0,0
1064.77,0,0
1064.77,1,2
1064.77,2,1
1064.78,1,1
1064.78,1,1
1064.78,0,1
1064.78,1,3
1064.78,3,2
1064.79,1,0
1064.79,0,1
1064.79,3,5
1064.79,6,2
1064.79,0,0
1064.79,1,2
1064.79,2,2
1064.8,1,1
1064.8,1,1
1064.8,1,1
1064.8,1,1
1064.8,0,1
1064.81,1,1
1064.81,1,2
1064.81,2,2
1064.81,1,1
1064.81,1,2
1064.81,3,4
1064.81,2,2
1064.82,1,1
1064.82,1,1
1064.82,1,1
1064.82,1,1
1064.82,1,1
1064.83,1,0
1064.83,0,1
1064.83,1,2
1064.83,2,2
1064.83,1,1
1064.83,2,2
1064.83,2,2
1064.84,3,2
1064.84,2,2
1064.84,1,1
1064.84,0,0
1064.85,0,1
1064.85,1,2
1064.85,2,2
1064.85,2,2
1064.85,1,1
1064.85,1,1
1064.85,2,3
1064.86,3,2
1064.86,1,1
1064.86,1,0
1064.86,0,1
1064.86,1,2
1064.87,2,3
1064.87,2,1
1064.87,2,4
1064.87,3,3
1064.87,2,1
1064.88,1,0
1064.88,0,0
1064.88,0,0
1064.88,1,1
1064.88,1,1
1064.88,1,1
1064.88,0,1
1064.89,1,1
1064.89,1,1
1064.89,2,2
1064.89,2,2
1064.89,2,3
1064.9,2,2
1064.9,1,0
1064.9,0,1
1064.9,1,1
1064.9,0,0
1064.9,0,3
1064.9,4,4
1064.91,2,1
1064.91,1,1
1064.91,0,1
1064.91,1,2
1064.92,2,3
1064.92,2,2
1064.92,2,1
1064.92,1,1
1064.92,0,0
1064.92,1,1
1064.92,1,1
1064.93,0,0
1064.93,0,1
1064.93,1,2
1064.93,2,2
1064.93,2,2
1064.94,2,2
1064.94,1,1
1064.94,2,2
1064.94,2,2
1064.94,2,1
1064.94,1,1
1064.94,2,2
1064.95,2,2
1064.95,2,1
1064.95,1,1
1064.95,1,2
1064.95,3,4
1064.96,4,2
1064.96,0,0
1064.96,-1,0
1064.96,1,1
1064.97,2,2
1064.97,2,2
1064.97,2,2
1064.97,1,0
1064.97,0,0
1064.97,1,2
1064.97,5,5
1064.97,4,1
1064.98,0,0
1064.98,1,3
1064.98,2,2
1064.98,1,1
1064.99,1,1
1064.99,2,1
1064.99,1,0
1064.99,0,0
1064.99,0,0
1064.99,0,1
1064.99,2,4
1065,5,5
1065,3,1
1065,0,0
1065,1,2
1065,3,3
1065.01,1,0
1065.01,1,1
1065.01,1,0
1065.01,0,0
1065.01,0,0
1065.01,1,3
1065.01,4,3
1065.02,3,3
1065.02,3,2
1065.02,1,1
1065.02,1,1
1065.02,1,1
1065.03,1,1
1065.03,1,1
1065.03,1,0
1065.03,1,2
1065.04,2,2
1065.04,2,2
1065.04,1,1
1065.04,0,0
1065.04,0,1
1065.04,1,2
1065.04,3,3
1065.05,1,1
1065.05,1,0
1065.05,0,0
1065.05,2,4
1065.05,4,3
1065.06,2,1
1065.06,0,0
1065.06,1,1
1065.06,1,1
1065.06,1,1
1065.06,1,0
1065.06,1,1
1065.07,1,2
1065.07,2,2
1065.07,2,2
1065.07,2,2
1065.07,2,1
1065.08,1,1
1065.08,1,1
1065.08,1,2
1065.08,2,2
1065.08,2,2
1065.08,1,1
1065.08,1,1
1065.09,3,3
1065.09,2,1
1065.09,0,1
1065.09,1,1
1065.09,1,1
1065.1,2,3
1065.1,3,1
1065.1,1,0
1065.1,1,1
1065.1,1,1
1065.1,2,2
1065.1,2,2
1065.11,1,2
1065.11,2,2
1065.11,2,1
1065.11,1,1
1065.12,2,3
1065.12,2,2
1065.12,1,1
1065.12,1,2
1065.12,2,2
1065.13,2,1
1065.13,1,1
1065.13,2,2
1065.13,2,2
1065.13,2,2
1065.13,2,1
1065.13,1,1
1065.14,1,3
1065.14,4,2
1065.14,0,0
1065.14,1,2
1065.14,3,1
1065.15,1,0
1065.15,1,1
1065.15,1,1
1065.15,2,2
1065.15,2,1
1065.15,1,1
1065.15,1,2
1065.16,2,2
1065.16,2,1
1065.16,1,1
1065.16,1,2
1065.16,2,2
1065.17,2,2
1065.17,2,2
1065.17,2,2
1065.17,2,1
1065.17,1,0
1065.17,0,1
1065.17,1,1
1065.18,1,1
1065.18,1,1
1065.18,1,1
1065.18,2,1
1065.19,0,0
1065.19,0,1
1065.19,1,2
1065.19,2,1
1065.19,1,1
1065.19,1,1
1065.19,1,2
1065.2,2,4
1065.2,4,3
1065.2,2,1
1065.2,1,1
1065.2,1,1
1065.21,0,0
1065.21,0,1
1065.21,1,1
1065.21,1,1
1065.21,1,1
1065.22,1,1
1065.22,1,1
1065.22,2,3
1065.22,3,2
1065.22,2,2
1065.22,2,1
1065.22,1,1
1065.23,1,1
1065.23,2,2
1065.23,2,1
1065.23,0,0
1065.24,1,1
1065.24,3,6
1065.24,5,2
1065.24,0,0
1065.24,0,0
1065.24,1,1
1065.24,1,1
1065.25,1,0
1065.25,0,0
1065.25,0,1
1065.25,1,2
1065.25,2,2
1065.26,2,2
1065.26,2,2
1065.26,3,1
1065.26,1,1
1065.26,2,1
1065.26,0,0
1065.26,1,1
1065.27,1,1
1065.27,1,2
1065.27,2,2
1065.27,2,2
1065.27,2,1
1065.28,1,1
1065.28,1,2
1065.28,2,2
1065.28,2,2
1065.28,2,2
1065.28,2,2
1065.29,2,2
1065.29,2,1
1065.29,1,1
1065.29,0,0
1065.29,0,1
1065.29,1,1
1065.3,1,2
1065.3,2,2
1065.3,2,2
1065.3,2,2
1065.31,2,2
1065.31,2,1
1065.31,1,1
1065.31,2,2
1065.31,2,2
1065.31,2,2
1065.31,2,2
1065.32,1,1
1065.32,1,3
1065.32,2,1
1065.32,0,0
1065.32,1,1
1065.33,1,0
1065.33,0,1
1065.33,3,5
1065.33,6,3
1065.33,1,0
1065.33,0,0
1065.33,0,1
1065.34,1,1
1065.34,1,2
1065.34,3,3
1065.34,2,1
1065.34,0,1
1065.35,1,1
1065.35,1,2
1065.35,2,1
1065.35,1,1
1065.35,1,0
1065.35,0,1
1065.35,1,2
1065.36,2,2
1065.36,2,1
1065.36,2,2
1065.36,2,2
1065.36,2,2
1065.37,1,1
1065.37,1,2
1065.37,2,1
1065.37,1,1
1065.38,1,2
1065.38,3,3
1065.38,1,0
1065.38,0,1
1065.38,2,2
1065.38,2,2
1065.38,2,1
1065.39,1,2
1065.39,2,3
1065.39,2,1
1065.39,1,0
1065.39,0,1
1065.4,1,2
1065.4,2,2
1065.4,2,2
1065.4,2,1
1065.4,1,1
1065.4,1,1
1065.4,1,1
1065.41,1,0
1065.41,1,1
1065.41,0,1
1065.41,1,2
1065.41,3,3
1065.42,3,2
1065.42,3,3
1065.42,1,0
1065.42,0,0
1065.42,0,0
1065.42,-1,1
1065.42,5,8
1065.43,7,2
1065.43,0,-1
1065.43,-1,0
1065.43,1,1
1065.44,2,2
1065.44,2,2
1065.44,2,2
1065.44,2,2
1065.44,2,2
1065.44,2,1
1065.44,0,0
1065.45,1,2
1065.45,3,2
1065.45,2,2
1065.45,2,2
1065.45,2,2
1065.46,1,1
1065.46,1,1
1065.46,2,1
1065.46,1,0
1065.46,0,1
1065.47,1,1
1065.47,1,1
1065.47,2,2
1065.47,3,2
1065.47,2,1
1065.47,1,1
1065.47,2,3
1065.48,3,1
1065.48,1,1
1065.48,0,1
1065.48,2,2
1065.48,2,1
1065.49,1,1
1065.49,1,1
1065.49,0,2
1065.49,2,1
1065.49,1,1
1065.49,1,1
1065.49,1,1
1065.5,1,1
1065.5,0,1
1065.5,2,2
1065.5,2,2
1065.51,2,2
1065.51,1,1
1065.51,1,1
1065.51,1,1
1065.51,1,1
1065.51,1,1
1065.51,1,1
1065.52,1,2
1065.52,2,2
1065.52,1,1
1065.52,1,1
1065.52,1,1
1065.53,1,0
1065.53,0,0
1065.53,0,1
1065.53,3,6
1065.53,6,3
1065.53,0,0
1065.53,0,0
1065.54,0,0
1065.54,1,1
1065.54,2,2
1065.54,3,3
1065.54,2,1
1065.55,2,3
1065.55,2,2
1065.55,2,1
1065.55,1,1
1065.55,1,0
1065.56,0,1
1065.56,0,0
1065.56,0,1
1065.56,2,3
1065.56,4,4
1065.56,3,3
1065.56,1,0
1065.57,1,1
1065.57,1,1
1065.57,2,2
1065.57,2,2
1065.58,2,2
1065.58,2,1
1065.58,1,1
1065.58,1,0
1065.58,0,1
1065.58,1,2
1065.58,3,3
1065.59,1,0
1065.59,1,1
1065.59,2,2
1065.59,2,2
1065.59,2,2
1065.6,1,1
1065.6,1,1
1065.6,1,1
1065.6,1,2
1065.6,2,2
1065.6,2,2
1065.6,2,2
1065.61,2,2
1065.61,1,1
1065.61,1,1
1065.61,1,1
1065.61,1,1
1065.62,1,1
1065.62,1,2
1065.62,1,1
1065.62,1,0
1065.62,0,2
1065.62,2,2
1065.62,1,1
1065.63,1,1
1065.63,1,1
1065.63,1,1
1065.63,1,1
1065.64,1,2
1065.64,2,1
1065.64,0,0
1065.64,1,2
1065.64,4,6
1065.65,5,3
1065.65,1,0
1065.65,0,0
1065.65,0,0
1065.65,0,1
1065.65,2,2
1065.65,2,1
1065.66,1,1
1065.66,2,2
1065.66,3,3
1065.66,2,1
1065.66,0,0
1065.67,1,2
1065.67,2,2
1065.67,2,2
1065.67,2,1
1065.67,1,1
1065.67,1,1
1065.67,1,1
1065.68,1,1
1065.68,1,1
1065.68,1,1
1065.68,3,3
1065.68,2,1
1065.69,1,2
1065.69,3,2
1065.69,1,0
1065.69,1,2
1065.69,2,1
1065.69,1,1
1065.69,2,3
1065.7,2,2
1065.7,1,1
1065.7,0,0
1065.7,1,1
1065.71,1,1
1065.71,0,1
1065.71,1,2
1065.71,2,2
1065.71,2,2
1065.71,2,2
1065.71,2,1
1065.72,1,1
1065.72,1,1
1065.72,1,2
1065.72,2,2
1065.72,2,2
1065.73,2,2
1065.73,2,1
1065.73,1,1
1065.73,1,1
1065.73,2,3
1065.74,2,1
1065.74,0,1
1065.74,1,2
1065.74,2,2
1065.74,2,2
1065.74,1,0
1065.74,0,0
1065.75,0,1
1065.75,3,6
1065.75,5,2
1065.75,0,0
1065.75,0,0
1065.76,1,2
1065.76,3,3
1065.76,3,2
1065.76,1,1
1065.76,1,1
1065.76,1,1
1065.76,1,1
1065.77,0,0
1065.77,1,1
1065.77,1,1
1065.77,1,1
1065.78,2,3
1065.78,3,4
1065.78,2,2
1065.78,1,0
1065.78,0,0
1065.78,0,0
1065.78,1,2
1065.79,2,1
1065.79,1,1
1065.79,1,1
1065.79,2,2
1065.79,2,2
1065.8,1,1
1065.8,2,2
1065.8,2,2
1065.8,2,2
1065.8,1,1
1065.81,1,1
1065.81,1,1
1065.81,1,1
1065.81,2,2
1065.81,3,3
1065.81,2,2
1065.81,0,0
1065.82,0,1
1065.82,1,0
1065.82,1,2
1065.82,3,3
1065.83,2,1
1065.83,1,1
1065.83,1,1
1065.83,0,1
1065.83,1,1
1065.83,2,2
1065.83,2,3
1065.84,1,1
1065.84,0,0
1065.84,0,1
1065.84,2,3
1065.84,3,3
1065.85,2,1
1065.85,1,2
1065.85,3,2
1065.85,1,0
1065.85,0,1
1065.85,1,1
1065.85,2,2
1065.86,2,2
1065.86,2,1
1065.86,1,1
1065.86,2,2
1065.86,2,2
1065.87,2,2
1065.87,1,1
1065.87,2,2
1065.87,2,2
1065.87,2,2
1065.87,1,1
1065.87,1,0
1065.88,1,1
1065.88,1,1
1065.88,1,1
1065.88,1,1
1065.88,1,2
1065.89,2,2
1065.89,2,2
1065.89,1,1
1065.89,1,2
1065.9,2,2
1065.9,2,2
1065.9,1,1
1065.9,1,1
1065.9,2,2
1065.9,2,3
1065.9,1,1
1065.91,1,1
1065.91,1,1
1065.91,1,1
1065.91,2,2
1065.91,2,1
1065.92,0,0
1065.92,1,1
1065.92,1,1
1065.92,1,1
1065.92,1,0
1065.92,1,1
1065.92,1,1
1065.93,1,2
1065.93,2,2
1065.93,2,1
1065.93,2,1
1065.93,1,2
1065.94,2,2
1065.94,2,2
1065.94,2,2
1065.94,2,1
1065.94,1,1
1065.94,0,1
1065.94,2,3
1065.95,2,1
1065.95,0,0
1065.95,0,0
1065.95,1,2
1065.95,2,2
1065.96,2,2
1065.96,2,2
1065.96,2,2
1065.96,2,1
1065.96,1,1
1065.96,3,5
1065.96,5,1
1065.97,-1,-2
1065.97,-1,0
1065.97,1,2
1065.97,3,3
1065.98,2,2
1065.98,3,3
1065.98,2,1
1065.98,1,1
1065.98,1,2
1065.99,2,1
1065.99,1,1
1065.99,2,3
1065.99,3,2
1065.99,2,1
1065.99,1,1
1065.99,1,0
1066,0,0
1066,1,1
1066,1,1
1066,1,1
1066,2,2
1066.01,2,2
1066.01,1,1
1066.01,2,2
1066.01,2,2
1066.01,2,2
1066.01,2,2
1066.01,1,1
1066.02,1,2
1066.02,3,2
1066.02,1,1
1066.02,1,1
1066.03,1,0
1066.03,0,2
1066.03,2,2
1066.03,1,1
1066.03,1,1
1066.03,1,0
1066.03,1,1
1066.04,1,2
1066.04,2,2
1066.04,2,2
1066.04,1,1
1066.04,1,1
1066.05,1,2
1066.05,2,2
1066.05,1,2
1066.05,3,3
1066.05,2,1
1066.05,1,1
1066.05,1,0
1066.06,0,1
1066.06,1,1
1066.06,2,2
1066.06,2,2
1066.06,2,2
1066.07,1,2
1066.07,2,2
1066.07,1,0
1066.07,0,0
1066.07,2,4
1066.08,5,3
1066.08,1,0
1066.08,1,1
1066.08,1,1
1066.08,0,0
1066.08,1,1
1066.08,1,1
1066.09,1,2
1066.09,2,2
1066.09,2,1
1066.09,1,1
1066.1,1,2
1066.1,2,2
1066.1,2,2
1066.1,2,2
1066.1,1,1
1066.1,1,1
1066.1,1,1
1066.11,1,1
1066.11,2,3
1066.11,3,3
1066.11,1,1
1066.11,0,1
1066.12,1,2
1066.12,2,2
1066.12,2,1
1066.12,1,1
1066.12,1,1
1066.12,1,0
1066.12,1,1
1066.13,1,2
1066.13,2,2
1066.13,1,0
1066.13,0,1
1066.13,2,4
1066.14,5,3
1066.14,3,2
1066.14,2,1
1066.14,0,0
1066.15,0,0
1066.15,0,1
1066.15,1,1
1066.15,2,2
1066.15,2,1
1066.15,1,2
1066.15,2,2
1066.15,2,2
1066.16,2,2
1066.16,2,2
1066.16,2,1
1066.16,1,1
1066.17,1,1
1066.17,1,1
1066.17,1,1
1066.17,0,1
1066.17,1,0
1066.17,0,0
1066.17,1,2
1066.18,4,6
1066.18,6,3
1066.18,1,0
1066.18,0,0
1066.18,0,0
1066.19,1,1
1066.19,1,1
1066.19,1,1
1066.19,1,2
1066.19,2,3
1066.19,2,1
1066.19,1,1
1066.2,2,2
1066.2,2,3
1066.2,2,2
1066.2,1,1
1066.2,0,0
1066.21,1,2
1066.21,2,2
1066.21,1,1
1066.21,2,2
1066.21,2,1
1066.21,1,1
1066.21,2,2
1066.22,2,2
1066.22,3,2
1066.22,2,1
1066.22,1,1
1066.23,1,1
1066.23,1,0
1066.23,0,1
1066.23,1,2
1066.23,2,2
1066.24,0,0
1066.24,1,2
1066.24,2,2
1066.24,2,2
1066.24,1,2
1066.24,3,2
1066.24,1,1
1066.25,1,1
1066.25,2,2
1066.25,3,3
1066.25,2,1
1066.25,0,0
1066.26,0,1
1066.26,2,3
1066.26,1,1
1066.26,1,0
1066.26,1,1
1066.26,1,1
1066.26,1,2
1066.27,2,2
1066.27,1,1
1066.27,2,2
1066.27,2,1
1066.27,0,1
1066.28,2,4
1066.28,4,4
1066.28,2,0
1066.28,0,0
1066.28,0,1
1066.28,2,2
1066.28,2,2
1066.29,1,1
1066.29,1,1
1066.29,1,2
1066.29,2,3
1066.3,3,1
1066.3,1,1
1066.3,1,1
1066.3,2,2
1066.3,2,2
1066.3,2,2
1066.3,2,2
1066.31,1,1
1066.31,1,0
1066.31,1,1
1066.31,1,2
1066.31,2,2
1066.32,2,2
1066.32,1,1
1066.32,1,1
1066.32,1,2
1066.32,2,3
1066.33,2,2
1066.33,2,1
1066.33,1,1
1066.33,0,1
1066.33,1,2
1066.33,2,2
1066.33,2,2
1066.34,1,1
1066.34,1,1
1066.34,1,2
1066.34,2,3
1066.34,3,2
1066.35,1,1
1066.35,0,1
1066.35,1,0
1066.35,1,1
1066.35,1,2
1066.35,2,2
1066.35,2,2
1066.36,2,2
1066.36,2,1
1066.36,1,1
1066.36,1,1
1066.37,1,1
1066.37,0,1
1066.37,1,1
1066.37,2,3
1066.37,3,3
1066.37,2,1
1066.37,0,0
1066.38,0,2
1066.38,3,3
1066.38,3,0
1066.38,0,0
1066.38,0,0
1066.39,1,1
1066.39,1,1
1066.39,2,2
1066.39,2,2
1066.39,3,2
1066.39,1,1
1066.39,0,1
1066.4,1,2
1066.4,2,2
1066.4,1,1
1066.4,2,1
1066.4,1,1
1066.41,2,3
1066.41,3,2
1066.41,1,1
1066.41,0,1
1066.42,1,1
1066.42,1,1
1066.42,0,1
1066.42,1,2
1066.42,3,3
1066.42,3,2
1066.42,1,1
1066.43,0,0
1066.43,1,1
1066.43,1,1
1066.43,2,3
1066.43,2,2
1066.44,1,1
1066.44,2,2
1066.44,2,2
1066.44,2,2
1066.44,1,1
1066.44,1,1
1066.44,1,2
1066.45,2,1
1066.45,1,1
1066.45,2,2
1066.45,1,1
1066.45,1,1
1066.46,1,2
1066.46,3,3
1066.46,2,1
1066.46,0,1
1066.46,1,1
1066.46,1,1
1066.46,1,1
1066.47,2,2
1066.47,2,2
1066.47,2,2
1066.47,2,2
1066.47,1,1
1066.48,1,1
1066.48,0,1
1066.48,1,2
1066.48,2,2
1066.48,2,1
1066.49,1,2
1066.49,2,2
1066.49,1,1
1066.49,1,1
1066.49,0,0
1066.49,2,2
1066.5,3,6
1066.5,5,3
1066.5,0,0
1066.5,0,0
1066.5,1,1
1066.51,1,1
1066.51,1,1
1066.51,1,0
1066.51,1,1
1066.51,1,1
1066.51,1,1
1066.51,2,2
1066.52,3,4
1066.52,3,1
1066.52,0,0
1066.52,1,1
1066.52,2,2
1066.53,3,2
1066.53,1,0
1066.53,0,0
1066.53,0,1
1066.53,1,1
1066.53,1,1
1066.53,1,2
1066.54,2,2
1066.54,3,3
1066.54,3,2
1066.54,2,1
1066.54,1,1
1066.55,1,1
1066.55,0,0
1066.55,1,1
1066.55,1,1
1066.55,0,2
1066.55,2,2
1066.55,1,1
1066.56,1,1
1066.56,0,0
1066.56,2,3
1066.56,3,2
1066.57,2,2
1066.57,1,1
1066.57,1,1
1066.57,2,2
1066.57,2,2
1066.58,1,1
1066.58,1,1
1066.58,2,2
1066.58,2,2
1066.58,2,2
1066.58,2,1
1066.58,2,2
1066.59,2,2
1066.59,1,0
1066.59,0,0
1066.59,2,4
1066.59,5,4
1066.6,3,0
1066.6,0,0
1066.6,0,0
1066.6,0,1
1066.6,1,2
1066.6,2,3
1066.6,2,1
1066.61,0,1
1066.61,1,1
1066.61,0,1
1066.61,2,3
1066.62,2,2
1066.62,2,2
1066.62,3,1
1066.62,0,1
1066.62,1,1
1066.62,1,1
1066.62,1,2
1066.62,2,3
1066.63,3,1
1066.63,1,1
1066.63,0,1
1066.63,2,2
1066.64,2,1
1066.64,1,1
1066.64,2,2
1066.64,2,2
1066.64,2,2
1066.64,1,1
1066.64,1,1
1066.65,1,2
1066.65,2,2
1066.65,2,3
1066.65,2,1
1066.65,0,0
1066.66,0,0
1066.66,1,2
1066.66,2,2
1066.66,2,2
1066.66,2,1
1066.67,1,1
1066.67,1,1
1066.67,2,2
1066.67,2,2
1066.67,2,2
1066.67,1,2
1066.67,2,2
1066.68,2,1
1066.68,1,1
1066.68,1,2
1066.68,2,2
1066.69,2,2
1066.69,2,1
1066.69,1,1
1066.69,2,2
1066.69,1,1
1066.69,1,1
1066.69,1,0
1066.7,0,0
1066.7,0,1
1066.7,3,5
1066.7,6,4
1066.7,2,0
1066.71,0,0
1066.71,0,1
1066.71,1,1
1066.71,1,1
1066.71,1,1
1066.71,0,0
1066.71,0,0
1066.72,1,2
1066.72,3,2
1066.72,2,2
1066.72,2,2
1066.72,1,1
1066.73,2,2
1066.73,2,3
1066.73,2,2
1066.73,2,1
1066.73,0,0
1066.73,0,0
1066.73,1,1
1066.74,2,2
1066.74,2,2
1066.74,2,2
1066.74,3,2
1066.74,1,1
1066.75,1,1
1066.75,1,1
1066.75,0,0
1066.75,0,1
1066.76,1,2
1066.76,2,1
1066.76,1,1
1066.76,2,3
1066.76,3,2
1066.76,2,2
1066.76,1,1
1066.77,1,1
1066.77,0,0
1066.77,0,1
1066.77,2,2
1066.77,2,2
1066.78,1,1
1066.78,1,1
1066.78,1,2
1066.78,2,3
1066.78,3,2
1066.78,1,1
1066.78,1,1
1066.79,1,1
1066.79,0,0
1066.79,2,2
1066.79,2,1
1066.79,1,1
1066.8,1,0
1066.8,0,1
1066.8,2,2
1066.8,2,2
1066.8,2,2
1066.8,2,2
1066.8,2,1
1066.81,1,0
1066.81,0,1
1066.81,2,5
1066.81,5,4
1066.81,1,0
1066.82,0,0
1066.82,0,0
1066.82,0,2
1066.82,4,3
1066.82,3,2
1066.82,1,0
1066.83,0,0
1066.83,1,2
1066.83,1,1
1066.83,2,2
1066.83,2,2
1066.84,2,2
1066.84,2,2
1066.84,2,2
1066.84,1,1
1066.84,1,1
1066.85,1,0
1066.85,1,1
1066.85,1,2
1066.85,2,2
1066.85,2,1
1066.85,1,2
1066.85,3,3
1066.86,1,1
1066.86,1,1
1066.86,2,2
1066.86,1,1
1066.86,0,0
1066.87,0,1
1066.87,2,2
1066.87,2,2
1066.87,2,2
1066.87,2,2
1066.87,1,0
1066.87,0,0
1066.88,0,0
1066.88,1,3
1066.88,3,3
1066.88,2,2
1066.89,1,2
1066.89,2,2
1066.89,2,1
1066.89,1,1
1066.89,1,1
1066.89,2,2
1066.89,2,1
1066.89,1,2
1066.9,2,1
1066.9,1,1
1066.9,1,1
1066.9,2,2
1066.91,1,2
1066.91,2,2
1066.91,2,2
1066.91,2,0
1066.91,0,0
1066.92,2,3
1066.92,4,6
1066.92,4,2
1066.92,0,0
1066.92,0,1
1066.92,1,0
1066.92,1,1
1066.93,2,3
1066.93,3,2
1066.93,1,1
1066.93,0,0
1066.93,1,2
1066.94,1,0
1066.94,0,0
1066.94,1,1
1066.94,2,3
1066.94,3,2
1066.94,1,1
1066.94,1,1
1066.95,2,3
1066.95,3,1
1066.95,1,1
1066.95,1,1
1066.96,0,1
1066.96,1,1
1066.96,1,1
1066.96,2,2
1066.96,2,3
1066.96,2,2
1066.96,1,1
1066.97,0,0
1066.97,1,1
1066.97,1,1
1066.97,1,1
1066.97,1,1
1066.98,1,2
1066.98,2,2
1066.98,2,2
1066.98,2,2
1066.98,2,2
1066.98,1,1
1066.98,1,1
1066.99,1,1
1066.99,1,1
1066.99,1,1
1066.99,1,1
1066.99,2,2
1067,2,3
1067,3,2
1067,1,0
1067,0,0
1067,1,1
1067.01,1,1
1067.01,1,1
1067.01,1,2
1067.01,2,3
1067.01,3,2
1067.01,2,1
1067.01,1,0
1067.02,0,0
1067.02,1,2
1067.02,2,2
1067.02,2,1
1067.03,1,1
1067.03,0,0
1067.03,0,0
1067.03,1,1
1067.03,3,5
1067.03,6,3
1067.03,1,0
1067.04,0,0
1067.04,0,1
1067.04,2,3
1067.04,2,1
1067.04,1,1
1067.05,0,0
1067.05,2,1
1067.05,1,1
1067.05,1,2
1067.05,2,2
1067.05,2,2
1067.05,2,2
1067.06,1,1
1067.06,2,3
1067.06,2,2
1067.06,1,1
1067.06,0,0
1067.07,1,1
1067.07,1,1
1067.07,1,2
1067.07,3,3
1067.07,2,2
1067.07,1,1
1067.07,2,1
1067.08,0,0
1067.08,0,1
1067.08,2,2
1067.08,2,2
1067.08,2,1
1067.09,0,0
1067.09,1,2
1067.09,2,2
1067.09,2,2
1067.1,3,2
1067.1,1,1
1067.1,1,0
1067.1,1,2
1067.1,2,2
1067.1,1,1
1067.1,1,2
1067.11,2,2
1067.11,2,2
1067.11,2,1
1067.11,1,0
1067.11,0,1
1067.12,1,3
1067.12,4,4
1067.12,3,0
1067.12,0,0
1067.12,1,1
1067.12,2,2
1067.12,3,2
1067.13,2,1
1067.13,1,1
1067.13,1,1
1067.13,0,0
1067.13,1,1
1067.14,1,1
1067.14,2,2
1067.14,2,2
1067.14,2,2
1067.14,2,3
1067.14,2,2
1067.14,2,2
1067.15,1,0
1067.15,0,0
1067.15,0,0
1067.15,0,0
1067.16,2,2
1067.16,3,2
1067.16,2,1
1067.16,0,0
1067.16,1,1
1067.16,3,6
1067.17,5,3
1067.17,0,0
1067.17,0,0
1067.17,1,1
1067.17,1,1
1067.17,1,0
1067.18,0,2
1067.18,1,1
1067.18,1,1
1067.18,1,2
1067.18,2,2
1067.19,2,2
1067.19,2,1
1067.19,1,2
1067.19,2,2
1067.19,2,2
1067.19,2,2
1067.19,1,1
1067.2,1,1
1067.2,1,1
1067.2,2,2
1067.2,1,1
1067.2,2,3
1067.21,3,1
1067.21,1,1
1067.21,0,1
1067.21,1,1
1067.21,1,1
1067.21,1,1
1067.21,0,1
1067.22,2,2
1067.22,2,2
1067.22,2,2
1067.22,2,2
1067.23,2,1
1067.23,1,1
1067.23,1,1
1067.23,2,3
1067.23,4,5
1067.23,3,1
1067.23,0,-1
1067.24,0,0
1067.24,1,1
1067.24,2,3
1067.24,3,2
1067.24,1,1
1067.25,1,0
1067.25,0,1
1067.25,2,2
1067.25,1,1
1067.25,1,1
1067.26,1,2
1067.26,2,2
1067.26,2,2
1067.26,2,2
1067.26,2,2
1067.26,2,2
1067.26,1,1
1067.27,0,1
1067.27,1,1
1067.27,1,1
1067.27,2,2
1067.27,2,2
1067.28,2,2
1067.28,2,2
1067.28,2,1
1067.28,1,0
1067.28,0,0
1067.28,2,4
1067.28,5,3
1067.29,1,1
1067.29,0,0
1067.29,0,1
1067.29,1,2
1067.3,2,2
1067.3,1,1
1067.3,1,1
1067.3,0,0
1067.3,1,2
1067.3,1,2
1067.3,2,2
1067.31,2,2
1067.31,1,0
1067.31,1,1
1067.31,2,3
1067.31,3,3
1067.32,1,1
1067.32,1,1
1067.32,1,0
1067.32,1,1
1067.32,1,2
1067.32,2,3
1067.32,2,2
1067.33,2,1
1067.33,1,1
1067.33,1,1
1067.33,1,1
1067.33,0,0
1067.34,1,1
1067.34,1,2
1067.34,2,2
1067.34,2,2
1067.35,2,1
1067.35,2,2
1067.35,3,2
1067.35,2,1
1067.35,0,0
1067.35,1,1
1067.35,1,1
1067.35,1,1
1067.36,1,1
1067.36,1,1
1067.36,2,2
1067.36,3,3
1067.37,2,1
1067.37,0,0
1067.37,1,3
1067.37,4,1
1067.37,1,1
1067.37,0,1
1067.37,1,2
1067.38,2,2
1067.38,1,1
1067.38,2,2
1067.38,2,2
1067.38,2,2
1067.39,2,1
1067.39,1,0
1067.39,1,1
1067.39,2,5
1067.39,4,3
1067.39,1,1
1067.39,1,1
1067.4,0,1
1067.4,1,1
1067.4,1,1
1067.4,1,1
1067.4,1,1
1067.41,1,1
1067.41,1,0
1067.41,1,1
1067.41,1,1
1067.41,1,1
1067.41,2,2
1067.41,2,2
1067.42,2,2
1067.42,2,2
1067.42,2,2
1067.42,2,1
1067.43,1,1
1067.43,1,1
1067.43,1,0
1067.43,1,2
1067.43,2,2
1067.44,2,1
1067.44,1,2
1067.44,2,2
1067.44,2,1
1067.44,1,1
1067.44,1,1
1067.44,2,1
1067.45,1,2
1067.45,3,3
1067.45,2,1
1067.45,1,1
1067.45,1,1
1067.46,1,1
1067.46,1,1
1067.46,0,0
1067.46,0,1
1067.46,2,3
1067.46,3,3
1067.46,1,1
1067.47,1,1
1067.47,0,1
1067.47,1,1
1067.47,1,1
1067.47,1,2
1067.48,2,3
1067.48,2,2
1067.48,2,1
1067.48,1,1
1067.48,2,2
1067.48,3,2
1067.48,0,0
1067.49,0,1
1067.49,2,3
1067.49,4,3
1067.49,2,2
1067.5,3,5
1067.5,4,2
1067.5,0,-1
1067.5,0,1
1067.5,1,0
1067.51,0,0
1067.51,1,1
1067.51,1,1
1067.51,1,1
1067.51,2,2
1067.51,1,1
1067.51,2,2
1067.52,3,3
1067.52,2,1
1067.52,1,1
1067.52,1,1
1067.52,0,1
1067.53,1,1
1067.53,2,2
1067.53,1,1
1067.53,0,0
1067.53,1,2
1067.53,2,2
1067.53,2,1
1067.54,1,1
1067.54,1,1
1067.54,1,1
1067.54,1,0
1067.54,1,1
1067.55,1,2
1067.55,2,2
1067.55,2,2
1067.55,2,1
1067.55,1,2
1067.55,2,2
1067.55,1,1
1067.56,2,2
1067.56,2,3
1067.56,2,2
1067.56,1,0
1067.57,0,1
1067.57,1,2
1067.57,2,3
1067.57,1,1
1067.57,1,0
1067.57,1,1
1067.57,2,2
1067.58,2,2
1067.58,2,2
1067.58,2,1
1067.58,1,1
1067.58,1,1
1067.59,1,1
1067.59,2,2
1067.59,2,1
1067.59,1,1
1067.59,1,1
1067.59,2,2
1067.59,2,2
1067.6,2,2
1067.6,2,2
1067.6,2,1
1067.6,2,3
1067.6,1,0
1067.61,0,0
1067.61,0,2
1067.61,4,6
1067.61,4,2
1067.62,0,0
1067.62,0,0
1067.62,1,1
1067.62,1,1
1067.62,1,1
1067.62,2,3
1067.62,3,2
1067.63,2,2
1067.63,1,1
1067.63,1,1
1067.63,2,2
1067.63,2,2
1067.64,1,1
1067.64,1,1
1067.64,2,3
1067.64,3,3
1067.64,2,2
1067.64,0,0
1067.64,1,1
1067.65,0,0
1067.65,1,1
1067.65,2,2
1067.65,2,2
1067.65,2,2
1067.66,1,1
1067.66,2,2
1067.66,2,2
1067.66,2,2
1067.66,2,1
1067.66,1,2
1067.66,2,2
1067.67,2,2
1067.67,2,1
1067.67,1,1
1067.67,1,1
1067.67,1,1
1067.68,1,1
1067.68,1,2
1067.68,2,2
1067.68,2,2
1067.69,2,2
1067.69,2,2
1067.69,1,1
1067.69,1,1
1067.69,1,1
1067.69,2,3
1067.69,3,2
1067.7,1,0
1067.7,0,1
1067.7,2,2
1067.7,2,2
1067.7,1,2
1067.71,2,2
1067.71,2,2
1067.71,1,1
1067.71,1,1
1067.71,1,2
1067.71,2,2
1067.71,2,3
1067.72,1,1
1067.72,1,0
1067.72,0,0
1067.72,0,1
1067.72,2,4
1067.73,5,2
1067.73,1,0
1067.73,0,0
1067.73,1,2
1067.73,2,1
1067.73,1,1
1067.73,1,1
1067.74,1,1
1067.74,1,1
1067.74,1,1
1067.74,2,2
1067.74,2,1
1067.75,1,2
1067.75,2,3
1067.75,3,3
1067.75,2,1
1067.75,0,0
1067.75,0,1
1067.75,1,1
1067.76,1,1
1067.76,1,1
1067.76,0,1
1067.76,1,1
1067.77,1,1
1067.77,0,1
1067.77,1,2
1067.77,2,2
1067.77,2,2
1067.78,3,2
1067.78,2,2
1067.78,2,2
1067.78,1,0
1067.78,0,0
1067.78,1,1
1067.78,2,2
1067.79,2,2
1067.79,1,1
1067.79,1,2
1067.79,2,2
1067.79,2,3
1067.8,2,1
1067.8,1,1
1067.8,1,1
1067.8,1,1
1067.8,1,1
1067.8,1,1
1067.8,0,0
1067.81,1,2
1067.81,2,2
1067.81,2,2
1067.81,2,2
1067.82,1,1
1067.82,1,1
1067.82,1,1
1067.82,1,0
1067.82,1,1
1067.82,1,3
1067.82,3,2
1067.82,1,0
1067.83,1,1
1067.83,1,1
1067.83,2,2
1067.83,1,1
1067.84,1,2
1067.84,2,2
1067.84,2,2
1067.84,2,2
1067.84,1,1
1067.84,1,1
1067.84,2,4
1067.85,4,3
1067.85,1,0
1067.85,0,0
1067.85,1,1
1067.85,2,3
1067.86,2,1
1067.86,0,0
1067.86,1,1
1067.86,1,2
1067.86,2,2
1067.87,2,2
1067.87,2,2
1067.87,2,2
1067.87,2,2
1067.87,1,1
1067.87,2,2
1067.87,1,0
1067.88,0,0
1067.88,1,1
1067.88,2,3
1067.88,3,2
1067.89,2,1
1067.89,0,0
1067.89,2,1
1067.89,1,1
1067.89,1,1
1067.89,1,1
1067.89,1,1
1067.9,0,1
1067.9,1,2
1067.9,2,1
1067.9,0,0
1067.9,1,2
1067.91,3,5
1067.91,3,2
1067.91,1,1
1067.91,1,1
1067.91,1,0
1067.91,0,0
1067.91,2,2
1067.92,1,1
1067.92,2,2
1067.92,2,2
1067.92,2,2
1067.92,2,2
1067.93,2,1
1067.93,1,1
1067.93,1,1
1067.93,1,1
1067.93,1,1
1067.93,1,2
1067.93,3,3
1067.94,2,1
1067.94,0,1
1067.94,1,2
1067.94,2,2
1067.94,2,2
1067.95,2,2
1067.95,2,1
1067.95,1,2
1067.95,2,2
1067.96,2,2
1067.96,1,2
1067.96,2,2
1067.96,1,1
1067.96,1,1
1067.96,1,1
1067.96,2,2
1067.97,2,2
1067.97,2,1
1067.97,1,0
1067.97,0,0
1067.97,1,2
1067.98,4,6
1067.98,6,3
1067.98,0,0
1067.98,0,0
1067.98,1,1
1067.98,2,1
1067.98,1,1
1067.99,1,2
1067.99,1,0
1067.99,0,0
1067.99,0,0
1067.99,1,1
1068,2,2
1068,2,2
1068,2,3
1068,2,2
1068,3,3
1068,2,2
1068,1,1
1068.01,1,1
1068.01,1,1
1068.01,1,0
1068.01,0,0
1068.01,0,0
1068.02,3,4
1068.02,4,2
1068.02,1,1
1068.02,2,2
1068.03,2,2
1068.03,2,2
1068.03,1,0
1068.03,0,1
1068.03,1,1
1068.03,1,2
1068.03,2,3
1068.04,2,1
1068.04,1,0
1068.04,1,1
1068.04,1,1
1068.04,2,2
1068.05,2,2
1068.05,1,1
1068.05,1,2
1068.05,2,2
1068.05,2,2
1068.05,2,2
1068.05,2,1
1068.06,1,1
1068.06,1,1
1068.06,1,2
1068.06,2,2
1068.06,2,2
1068.07,2,2
1068.07,2,2
1068.07,1,1
1068.07,1,1
1068.07,2,2
1068.07,2,2
1068.07,2,2
1068.08,1,1
1068.08,1,2
1068.08,2,1
1068.08,1,1
1068.09,1,1
1068.09,3,6
1068.09,5,2
1068.09,0,-1
1068.09,0,0
1068.09,0,1
1068.09,1,1
1068.1,1,1
1068.1,2,2
1068.1,2,2
1068.1,2,2
1068.1,2,2
1068.11,2,2
1068.11,1,1
1068.11,2,2
1068.11,1,1
1068.11,1,2
1068.12,2,3
1068.12,2,2
1068.12,1,1
1068.12,1,1
1068.12,1,1
1068.12,1,2
1068.12,2,3
1068.13,3,2
1068.13,0,0
1068.13,0,0
1068.13,0,1
1068.13,2,2
1068.14,3,2
1068.14,3,2
1068.14,2,2
1068.14,2,2
1068.14,2,1
1068.14,1,0
1068.14,1,2
1068.15,2,2
1068.15,1,1
1068.15,1,1
1068.15,1,0
1068.16,1,1
1068.16,1,1
1068.16,0,0
1068.16,1,2
1068.16,2,3
1068.16,4,3
1068.16,3,1
1068.17,0,0
1068.17,0,1
1068.17,1,2
1068.17,3,3
1068.17,2,1
1068.18,0,0
1068.18,1,1
1068.18,1,2
1068.18,2,2
1068.18,2,3
1068.18,2,1
1068.18,1,1
1068.19,1,1
1068.19,1,1
1068.19,0,0
1068.19,0,0
1068.19,1,4
1068.2,5,4
1068.2,2,1
1068.2,0,0
1068.2,0,1
1068.2,1,2
1068.21,2,1
1068.21,1,0
1068.21,0,1
1068.21,2,2
1068.21,2,1
1068.21,1,1
1068.21,1,2
1068.22,2,2
1068.22,1,2
1068.22,2,2
1068.22,1,2
1068.23,3,2
1068.23,0,1
1068.23,1,1
1068.23,1,2
1068.23,2,2
1068.23,2,2
1068.23,2,2
1068.24,2,1
1068.24,1,1
1068.24,1,1
1068.24,1,1
1068.24,1,1
1068.25,1,1
1068.25,2,1
1068.25,1,0
1068.25,0,1
1068.25,2,2
1068.25,3,1
1068.25,1,1
1068.26,1,1
1068.26,1,1
1068.26,1,1
1068.26,0,1
1068.26,1,1
1068.27,1,1
1068.27,2,2
1068.27,2,2
1068.27,2,2
1068.27,2,1
1068.27,1,1
1068.27,1,2
1068.28,2,2
1068.28,2,2
1068.28,2,2
1068.28,2,1
1068.29,1,1
1068.29,1,2
1068.29,3,2
1068.29,2,0
1068.29,0,0
1068.3,0,1
1068.3,2,4
1068.3,3,1
1068.3,0,0
1068.3,0,0
1068.3,0,1
1068.3,3,4
1068.31,5,3
1068.31,2,1
1068.31,1,0
1068.31,0,0
1068.31,1,1
1068.32,2,2
1068.32,2,1
1068.32,1,2
1068.32,2,2
1068.32,2,2
1068.32,2,2
1068.32,1,1
1068.33,1,2
1068.33,3,2
1068.33,3,2
1068.33,0,0
1068.33,0,1
1068.34,2,3
1068.34,1,1
1068.34,1,1
1068.34,2,2
1068.34,2,2
1068.34,2,2
1068.34,2,2
1068.35,1,1
1068.35,1,1
1068.35,1,1
1068.35,1,1
1068.36,0,1
1068.36,1,1
1068.36,1,1
1068.36,1,2
1068.36,2,2
1068.37,2,2
1068.37,2,2
1068.37,2,2
1068.37,2,2
1068.37,1,1
1068.37,0,0
1068.37,1,1
1068.38,1,1
1068.38,1,1
1068.38,1,1
1068.38,1,2
1068.38,3,3
1068.39,3,1
1068.39,1,0
1068.39,1,2
1068.39,2,2
1068.39,1,1
1068.39,1,1
1068.39,1,1
1068.4,0,0
1068.4,1,1
1068.4,1,1
1068.4,1,2
1068.4,3,3
1068.41,2,1
1068.41,1,0
1068.41,1,1
1068.41,1,1
1068.41,1,1
1068.41,1,1
1068.41,1,1
1068.42,1,1
1068.42,3,5
1068.42,5,3
1068.42,1,0
1068.43,0,0
1068.43,0,0
1068.43,0,1
1068.43,1,1
1068.43,1,1
1068.43,1,1
1068.43,2,3
1068.44,4,1
1068.44,0,1
1068.44,1,1
1068.44,1,2
1068.44,3,3
1068.45,1,1
1068.45,0,1
1068.45,1,2
1068.45,2,2
1068.45,1,1
1068.46,1,2
1068.46,2,3
1068.46,3,1
1068.46,1,0
1068.46,1,1
1068.46,1,2
1068.46,3,3
1068.47,3,2
1068.47,1,1
1068.47,0,1
1068.47,2,2
1068.48,1,0
1068.48,0,0
1068.48,0,1
1068.48,1,2
1068.48,3,3
1068.48,3,1
1068.48,1,1
1068.48,1,2
1068.49,1,0
1068.49,0,0
1068.49,1,1
1068.49,2,2
1068.5,2,1
1068.5,1,2
1068.5,3,3
1068.5,2,1
1068.5,2,1
1068.5,0,0
1068.5,1,2
1068.51,2,2
1068.51,2,1
1068.51,1,1
1068.51,1,1
1068.51,1,0
1068.52,1,1
1068.52,2,2
1068.52,2,2
1068.52,2,2
1068.52,2,1
1068.52,1,1
1068.52,2,2
1068.53,2,2
1068.53,2,1
1068.53,1,1
1068.53,1,1
1068.53,3,5
1068.54,6,3
1068.54,0,0
1068.54,0,1
1068.54,1,0
1068.55,0,0
1068.55,0,1
1068.55,1,1
1068.55,1,1
1068.55,2,2
1068.55,1,2
1068.55,2,2
1068.56,2,1
1068.56,0,1
1068.56,0,2
1068.56,2,3
1068.56,3,3
1068.57,2,3
1068.57,3,2
1068.57,0,0
1068.57,0,0
1068.57,0,1
