Program Time [s],data 0,data 1
1006.99,2,2
1007,1,1
1007,1,1
1007,1,1
1007,1,2
1007,2,2
1007.01,2,2
1007.01,2,2
1007.01,3,2
1007.01,2,1
1007.01,0,0
1007.01,1,1
1007.01,1,2
1007.02,1,1
1007.02,1,1
1007.02,1,0
1007.02,2,2
1007.02,3,3
1007.03,4,2
1007.03,1,0
1007.03,0,1
1007.03,1,2
1007.03,2,1
1007.03,1,1
1007.03,1,2
1007.04,2,2
1007.04,3,2
1007.04,2,2
1007.04,2,2
1007.04,2,1
1007.05,0,1
1007.05,0,0
1007.05,0,0
1007.05,0,1
1007.06,1,1
1007.06,2,2
1007.06,2,3
1007.06,4,5
1007.06,4,3
1007.06,1,0
1007.06,0,0
1007.07,0,1
1007.07,1,1
1007.07,1,1
1007.07,2,2
1007.07,2,2
1007.08,2,1
1007.08,1,1
1007.08,1,1
1007.08,0,1
1007.08,2,3
1007.08,4,5
1007.08,4,2
1007.09,1,0
1007.09,0,0
1007.09,1,1
1007.09,1,0
1007.09,0,0
1007.1,0,1
1007.1,1,2
1007.1,2,2
1007.1,1,1
1007.1,2,2
1007.1,3,3
1007.1,1,1
1007.11,0,1
1007.11,1,1
1007.11,1,1
1007.11,1,0
1007.11,1,2
1007.12,2,2
1007.12,2,2
1007.12,1,0
1007.12,1,1
1007.12,1,1
1007.12,0,0
1007.12,1,2
1007.13,2,2
1007.13,2,2
1007.13,2,2
1007.13,2,2
1007.14,1,0
1007.14,0,0
1007.14,2,2
1007.14,3,3
1007.14,3,2
1007.15,1,1
1007.15,2,2
1007.15,2,2
1007.15,2,1
1007.15,1,1
1007.15,1,1
1007.15,0,0
1007.16,1,1
1007.16,1,1
1007.16,1,1
1007.16,1,2
1007.16,3,3
1007.17,2,1
1007.17,1,1
1007.17,1,2
1007.17,2,2
1007.17,2,2
1007.17,1,1
1007.17,1,1
1007.18,2,3
1007.18,3,3
1007.18,3,1
1007.18,0,0
1007.18,0,0
1007.19,1,1
1007.19,2,2
1007.19,2,2
1007.19,2,2
1007.19,2,1
1007.19,1,1
1007.19,1,1
1007.2,1,2
1007.2,2,2
1007.2,2,2
1007.2,2,2
1007.21,2,2
1007.21,2,1
1007.21,1,1
1007.21,0,1
1007.21,1,1
1007.21,1,2
1007.22,2,2
1007.22,2,2
1007.22,2,2
1007.22,2,1
1007.22,1,1
1007.22,1,1
1007.23,1,1
1007.23,1,1
1007.23,1,2
1007.23,1,1
1007.23,0,0
1007.24,0,0
1007.24,0,2
1007.24,3,3
1007.24,3,2
1007.24,3,2
1007.24,2,1
1007.24,1,1
1007.25,1,1
1007.25,1,1
1007.25,1,0
1007.25,0,1
1007.26,2,2
1007.26,3,2
1007.26,1,1
1007.26,0,1
1007.26,1,2
1007.26,3,2
1007.26,1,0
1007.27,1,2
1007.27,2,1
1007.27,1,1
1007.27,1,0
1007.27,0,1
1007.28,2,2
1007.28,3,5
1007.28,6,3
1007.28,1,1
1007.28,2,2
1007.28,1,0
1007.28,0,0
1007.29,0,0
1007.29,1,1
1007.29,2,3
1007.29,3,2
1007.29,2,1
1007.3,1,1
1007.3,1,2
1007.3,2,2
1007.3,1,1
1007.3,1,2
1007.31,2,2
1007.31,2,2
1007.31,1,1
1007.31,2,2
1007.31,2,1
1007.31,1,1
1007.31,2,2
1007.32,2,2
1007.32,1,1
1007.32,2,2
1007.32,2,2
1007.33,2,2
1007.33,1,1
1007.33,1,1
1007.33,1,1
1007.33,0,1
1007.33,0,1
1007.33,1,2
1007.34,2,2
1007.34,2,2
1007.34,2,2
1007.34,2,2
1007.34,2,2
1007.35,1,1
1007.35,1,1
1007.35,1,1
1007.35,1,1
1007.35,0,0
1007.35,1,1
1007.35,2,3
1007.36,2,1
1007.36,1,2
1007.36,2,2
1007.36,3,3
1007.36,2,1
1007.37,0,0
1007.37,1,0
1007.37,1,1
1007.37,2,2
1007.37,2,1
1007.37,0,0
1007.37,1,1
1007.38,3,5
1007.38,4,2
1007.38,1,1
1007.38,0,0
1007.38,0,1
1007.39,1,1
1007.39,1,1
1007.39,1,1
1007.39,1,1
1007.4,0,1
1007.4,1,1
1007.4,2,2
1007.4,2,2
1007.4,2,2
1007.4,1,1
1007.4,1,1
1007.41,2,2
1007.41,2,3
1007.41,2,2
1007.41,1,1
1007.41,1,2
1007.42,2,2
1007.42,1,1
1007.42,1,1
1007.42,2,1
1007.42,1,1
1007.42,2,2
1007.42,4,3
1007.43,3,2
1007.43,2,1
1007.43,1,0
1007.43,0,0
1007.43,1,1
1007.44,1,1
1007.44,1,0
1007.44,0,1
1007.44,3,3
1007.44,2,1
1007.44,0,1
1007.44,1,2
1007.45,3,2
1007.45,1,1
1007.45,0,1
1007.45,1,0
1007.46,0,1
1007.46,2,2
1007.46,2,2
1007.46,2,2
1007.46,2,2
1007.46,2,2
1007.46,2,2
1007.46,1,0
1007.47,0,1
1007.47,1,2
1007.47,2,2
1007.47,2,1
1007.48,1,1
1007.48,2,2
1007.48,3,5
1007.48,5,2
1007.48,0,-1
1007.49,0,0
1007.49,0,1
1007.49,2,2
1007.49,2,2
1007.49,2,2
1007.49,2,2
1007.49,2,2
1007.5,2,2
1007.5,1,1
1007.5,1,1
1007.5,1,1
1007.5,1,2
1007.51,2,2
1007.51,3,2
1007.51,2,1
1007.51,1,0
1007.51,1,1
1007.51,0,1
1007.51,1,1
1007.52,1,1
1007.52,1,2
1007.52,2,2
1007.52,2,3
1007.53,2,2
1007.53,2,1
1007.53,1,1
1007.53,1,0
1007.53,0,1
1007.53,1,1
1007.53,2,2
1007.54,1,1
1007.54,1,2
1007.54,3,3
1007.54,2,2
1007.54,1,1
1007.55,1,1
1007.55,1,1
1007.55,0,0
1007.55,1,1
1007.55,2,1
1007.55,1,1
1007.55,1,2
1007.56,3,3
1007.56,2,2
1007.56,1,1
1007.56,1,1
1007.56,0,0
1007.57,0,0
1007.57,1,2
1007.57,2,2
1007.57,2,2
1007.57,2,3
1007.58,2,1
1007.58,0,0
1007.58,0,0
1007.58,2,4
1007.58,5,5
1007.58,3,0
1007.58,0,0
1007.59,1,1
1007.59,2,2
1007.59,1,1
1007.59,0,0
1007.6,0,0
1007.6,1,1
1007.6,2,3
1007.6,3,3
1007.6,3,2
1007.6,2,2
1007.6,2,2
1007.61,2,2
1007.61,1,1
1007.61,1,1
1007.61,1,1
1007.61,2,2
1007.62,1,1
1007.62,0,0
1007.62,1,1
1007.62,1,2
1007.62,2,2
1007.62,2,2
1007.62,2,2
1007.63,2,2
1007.63,1,1
1007.63,2,2
1007.63,2,2
1007.63,1,1
1007.64,1,1
1007.64,1,2
1007.64,2,3
1007.64,3,4
1007.65,3,0
1007.65,0,0
1007.65,0,0
1007.65,0,1
1007.65,0,1
1007.65,1,2
1007.65,2,3
1007.65,3,2
1007.66,1,1
1007.66,1,1
1007.66,1,1
1007.66,1,1
1007.67,1,0
1007.67,1,1
1007.67,2,2
1007.67,2,2
1007.67,1,1
1007.67,1,1
1007.67,2,1
1007.68,1,1
1007.68,1,1
1007.68,1,2
1007.68,4,6
1007.68,5,3
1007.69,1,0
1007.69,-1,0
1007.69,0,0
1007.69,0,0
1007.69,0,0
1007.69,0,2
1007.69,2,3
1007.7,3,3
1007.7,2,2
1007.7,2,2
1007.7,2,2
1007.7,2,2
1007.71,2,1
1007.71,1,1
1007.71,0,1
1007.71,2,2
1007.71,2,2
1007.71,1,1
1007.71,1,1
1007.72,2,2
1007.72,2,3
1007.72,1,1
1007.72,1,1
1007.73,2,2
1007.73,2,2
1007.73,2,2
1007.73,2,1
1007.73,1,2
1007.74,2,1
1007.74,1,2
1007.74,3,3
1007.74,3,2
1007.74,1,0
1007.74,0,0
1007.74,1,1
1007.75,2,2
1007.75,3,3
1007.75,1,0
1007.75,1,1
1007.75,1,1
1007.76,2,2
1007.76,2,2
1007.76,3,2
1007.76,2,1
1007.76,1,1
1007.76,0,0
1007.76,1,0
1007.77,0,0
1007.77,1,3
1007.77,4,5
1007.77,3,1
1007.77,0,0
1007.78,1,1
1007.78,2,2
1007.78,2,2
1007.78,2,2
1007.78,1,1
1007.78,1,2
1007.78,2,1
1007.79,1,1
1007.79,2,2
1007.79,2,2
1007.79,2,2
1007.8,2,2
1007.8,2,2
1007.8,2,1
1007.8,1,1
1007.8,1,0
1007.8,0,0
1007.8,2,2
1007.81,2,2
1007.81,1,1
1007.81,1,1
1007.81,1,2
1007.81,2,2
1007.82,1,1
1007.82,1,2
1007.82,2,2
1007.82,1,0
1007.82,0,0
1007.83,1,1
1007.83,2,2
1007.83,2,2
1007.83,2,2
1007.83,2,2
1007.83,2,2
1007.83,2,2
1007.84,1,1
1007.84,1,1
1007.84,1,0
1007.84,1,1
1007.84,2,2
1007.85,3,3
1007.85,2,2
1007.85,1,1
1007.85,1,1
1007.85,1,1
1007.85,0,1
1007.85,1,1
1007.86,1,2
1007.86,2,2
1007.86,2,2
1007.86,2,1
1007.87,0,0
1007.87,1,1
1007.87,1,1
1007.87,1,1
1007.87,2,1
1007.87,1,2
1007.87,4,6
1007.88,5,3
1007.88,1,0
1007.88,0,0
1007.88,1,2
1007.88,2,2
1007.89,2,1
1007.89,1,1
1007.89,1,1
1007.89,1,2
1007.89,2,3
1007.89,3,0
1007.89,0,0
1007.9,1,2
1007.9,2,3
1007.9,3,2
1007.9,2,2
1007.9,2,2
1007.91,2,1
1007.91,0,0
1007.91,0,1
1007.91,1,1
1007.92,2,2
1007.92,3,3
1007.92,2,2
1007.92,1,1
1007.92,1,0
1007.92,0,1
1007.92,1,2
1007.93,2,2
1007.93,2,2
1007.93,2,2
1007.93,2,1
1007.93,1,1
1007.94,1,1
1007.94,1,1
1007.94,2,2
1007.94,2,2
1007.94,2,2
1007.94,2,2
1007.94,2,1
1007.95,1,1
1007.95,1,1
1007.95,1,1
1007.95,2,2
1007.95,3,3
1007.96,2,1
1007.96,1,0
1007.96,0,1
1007.96,1,1
1007.96,1,0
1007.96,1,1
1007.96,0,0
1007.97,1,3
1007.97,5,5
1007.97,4,2
1007.97,0,0
1007.97,0,0
1007.98,0,1
1007.98,1,1
1007.98,2,2
1007.98,2,2
1007.99,3,2
1007.99,1,1
1007.99,1,1
1007.99,1,1
1007.99,2,2
1007.99,2,3
1007.99,2,1
1008,0,1
1008,2,2
1008,2,2
1008,1,0
1008,0,0
1008.01,2,2
1008.01,2,1
1008.01,1,1
1008.01,2,3
1008.01,3,1
1008.01,0,1
1008.01,2,2
1008.02,2,2
1008.02,2,1
1008.02,1,1
1008.02,2,2
1008.02,2,2
1008.03,2,2
1008.03,2,2
1008.03,1,1
1008.03,1,1
1008.03,1,1
1008.03,1,1
1008.03,1,1
1008.04,1,1
1008.04,1,0
1008.04,1,2
1008.04,2,2
1008.04,2,2
1008.05,1,1
1008.05,2,1
1008.05,1,1
1008.05,1,2
1008.05,2,1
1008.05,0,0
1008.05,0,1
1008.06,1,2
1008.06,2,2
1008.06,2,2
1008.06,1,1
1008.07,1,1
1008.07,2,5
1008.07,6,4
1008.07,1,0
1008.07,0,0
1008.08,1,1
1008.08,1,1
1008.08,0,0
1008.08,1,1
1008.08,2,2
1008.08,2,2
1008.08,2,3
1008.09,2,1
1008.09,0,1
1008.09,1,2
1008.09,2,1
1008.09,1,1
1008.1,2,2
1008.1,2,3
1008.1,2,2
1008.1,1,1
1008.1,1,1
1008.1,0,0
1008.1,1,2
1008.11,2,2
1008.11,2,2
1008.11,2,1
1008.11,1,1
1008.12,1,0
1008.12,1,2
1008.12,2,3
1008.12,1,1
1008.12,1,1
1008.12,1,1
1008.12,0,1
1008.12,1,1
1008.13,1,2
1008.13,2,2
1008.13,3,2
1008.13,2,1
1008.14,0,1
1008.14,1,2
1008.14,2,1
1008.14,1,1
1008.14,2,2
1008.14,2,2
1008.14,2,2
1008.15,3,2
1008.15,1,1
1008.15,1,0
1008.15,0,1
1008.15,1,2
1008.16,2,2
1008.16,1,1
1008.16,1,1
1008.16,1,2
1008.16,3,3
1008.17,2,1
1008.17,1,0
1008.17,1,1
1008.17,1,1
1008.17,1,1
1008.17,1,1
1008.17,2,5
1008.18,4,3
1008.18,1,0
1008.18,1,0
1008.18,0,0
1008.19,1,2
1008.19,2,2
1008.19,2,1
1008.19,0,0
1008.19,1,1
1008.19,1,1
1008.19,1,1
1008.2,2,1
1008.2,1,2
1008.2,2,3
1008.2,3,2
1008.2,1,1
1008.21,1,2
1008.21,2,2
1008.21,2,1
1008.21,1,1
1008.21,1,1
1008.21,1,2
1008.21,2,3
1008.22,2,1
1008.22,1,0
1008.22,1,1
1008.22,1,1
1008.22,1,2
1008.23,2,3
1008.23,3,2
1008.23,1,0
1008.23,0,1
1008.23,1,1
1008.23,1,1
1008.23,1,2
1008.24,2,2
1008.24,2,3
1008.24,2,1
1008.24,0,1
1008.24,2,2
1008.25,1,1
1008.25,1,1
1008.25,1,0
1008.25,1,1
1008.26,1,2
1008.26,2,2
1008.26,2,2
1008.26,2,2
1008.26,2,1
1008.26,1,1
1008.26,1,2
1008.27,2,2
1008.27,3,3
1008.27,2,1
1008.27,0,0
1008.27,0,0
1008.28,0,0
1008.28,0,2
1008.28,3,6
1008.28,5,2
1008.28,0,0
1008.28,0,1
1008.28,2,2
1008.29,2,2
1008.29,2,2
1008.29,1,1
1008.29,1,1
1008.29,1,1
1008.3,0,1
1008.3,1,2
1008.3,3,3
1008.3,3,2
1008.3,1,1
1008.3,1,1
1008.3,1,1
1008.31,1,1
1008.31,1,1
1008.31,1,0
1008.31,0,1
1008.31,1,0
1008.32,1,1
1008.32,2,2
1008.32,2,2
1008.32,2,2
1008.32,2,1
1008.33,1,2
1008.33,2,2
1008.33,2,2
1008.33,2,1
1008.33,1,1
1008.33,1,1
1008.34,2,2
1008.34,2,2
1008.34,2,2
1008.34,1,2
1008.34,2,2
1008.35,2,1
1008.35,1,1
1008.35,1,1
1008.35,1,2
1008.35,2,1
1008.35,0,0
1008.35,0,1
1008.36,1,1
1008.36,1,1
1008.36,1,1
1008.36,1,1
1008.36,2,2
1008.37,2,3
1008.37,2,1
1008.37,1,1
1008.37,2,2
1008.37,2,1
1008.37,1,1
1008.37,2,2
1008.38,1,1
1008.38,0,0
1008.38,1,1
1008.38,3,5
1008.39,6,4
1008.39,2,0
1008.39,0,0
1008.39,0,0
1008.39,1,1
1008.39,1,1
1008.39,1,1
1008.4,1,1
1008.4,0,1
1008.4,1,1
1008.4,1,1
1008.4,1,1
1008.41,1,2
1008.41,2,2
1008.41,2,2
1008.41,2,2
1008.41,2,2
1008.42,2,2
1008.42,2,3
1008.42,2,2
1008.42,1,0
1008.42,0,0
1008.42,1,1
1008.42,1,1
1008.43,1,0
1008.43,1,0
1008.43,0,1
1008.43,3,3
1008.43,3,2
1008.44,1,0
1008.44,0,1
1008.44,2,3
1008.44,2,3
1008.44,3,3
1008.44,2,1
1008.44,1,1
1008.45,1,1
1008.45,1,1
1008.45,2,3
1008.45,2,0
1008.46,0,0
1008.46,0,1
1008.46,2,2
1008.46,3,3
1008.46,2,2
1008.46,2,1
1008.46,1,1
1008.47,1,1
1008.47,1,1
1008.47,0,0
1008.47,1,1
1008.47,1,1
1008.48,1,1
1008.48,1,2
1008.48,2,2
1008.48,2,1
1008.48,0,1
1008.48,2,4
1008.48,4,3
1008.49,3,2
1008.49,0,0
1008.49,0,0
1008.49,1,1
1008.49,2,2
1008.5,2,2
1008.5,2,2
1008.5,2,1
1008.5,1,0
1008.5,1,1
1008.51,1,2
1008.51,2,2
1008.51,2,2
1008.51,1,1
1008.51,2,3
1008.51,3,1
1008.51,1,1
1008.52,1,1
1008.52,1,1
1008.52,0,1
1008.52,1,1
1008.53,1,2
1008.53,2,2
1008.53,1,1
1008.53,2,3
1008.53,2,2
1008.53,2,2
1008.53,1,0
1008.54,0,1
1008.54,1,2
1008.54,3,2
1008.54,1,1
1008.54,0,1
1008.55,1,2
1008.55,2,2
1008.55,2,2
1008.55,2,2
1008.55,1,1
1008.55,1,0
1008.55,1,1
1008.56,1,2
1008.56,2,2
1008.56,2,2
1008.56,2,2
1008.56,2,2
1008.57,1,1
1008.57,1,1
1008.57,1,2
1008.57,2,2
1008.57,1,1
1008.57,0,0
1008.57,0,1
1008.58,2,3
1008.58,3,2
1008.58,1,1
1008.58,1,1
1008.59,0,1
1008.59,1,1
1008.59,1,1
1008.59,0,0
1008.59,3,5
1008.6,5,3
1008.6,1,0
1008.6,0,0
1008.6,1,1
1008.6,1,1
1008.6,1,1
1008.6,1,1
1008.61,0,1
1008.61,1,2
1008.61,2,2
1008.61,2,2
1008.61,2,2
1008.62,2,1
1008.62,1,1
1008.62,1,1
1008.62,0,1
1008.62,1,2
1008.62,3,2
1008.62,2,1
1008.63,0,0
1008.63,1,1
1008.63,1,2
1008.63,2,2
1008.63,2,2
1008.64,2,2
1008.64,2,2
1008.64,1,1
1008.64,1,1
1008.64,1,2
1008.64,2,3
1008.64,2,1
1008.65,0,1
1008.65,2,2
1008.65,2,2
1008.65,1,1
1008.66,1,1
1008.66,0,1
1008.66,2,2
1008.66,3,2
1008.66,2,1
1008.66,1,0
1008.66,0,1
1008.67,1,1
1008.67,1,2
1008.67,2,3
1008.67,2,1
1008.67,1,0
1008.68,0,0
1008.68,1,2
1008.68,4,5
1008.68,5,3
1008.68,1,0
1008.69,0,0
1008.69,0,1
1008.69,2,2
1008.69,1,1
1008.69,1,2
1008.69,1,1
1008.69,1,0
1008.7,0,0
1008.7,1,2
1008.7,2,2
1008.7,2,2
1008.7,2,2
1008.71,2,1
1008.71,1,2
1008.71,2,2
1008.71,2,1
1008.71,1,1
1008.71,1,1
1008.71,2,2
1008.72,2,2
1008.72,2,2
1008.72,1,1
1008.72,2,2
1008.73,2,2
1008.73,2,2
1008.73,1,1
1008.73,1,1
1008.73,1,1
1008.73,1,0
1008.73,1,2
1008.74,2,2
1008.74,1,1
1008.74,2,2
1008.74,2,2
1008.74,2,1
1008.75,1,1
1008.75,2,3
1008.75,3,1
1008.75,0,1
1008.75,1,1
1008.76,1,2
1008.76,2,2
1008.76,2,2
1008.76,2,2
1008.76,2,1
1008.76,1,1
1008.76,1,1
1008.77,1,1
1008.77,2,2
1008.77,2,2
1008.77,2,2
1008.78,2,2
1008.78,1,1
1008.78,1,1
1008.78,1,1
1008.78,2,2
1008.78,3,3
1008.78,3,3
1008.79,1,0
1008.79,0,0
1008.79,1,1
1008.79,1,1
1008.79,2,2
1008.8,2,2
1008.8,2,2
1008.8,2,2
1008.8,1,1
1008.8,1,1
1008.8,2,2
1008.8,2,2
1008.81,2,1
1008.81,1,2
1008.81,2,2
1008.81,2,2
1008.81,2,1
1008.82,1,2
1008.82,2,1
1008.82,2,2
1008.82,1,1
1008.82,2,4
1008.82,3,2
1008.82,1,0
1008.83,0,0
1008.83,1,2
1008.83,2,1
1008.83,1,2
1008.83,2,2
1008.84,1,1
1008.84,1,2
1008.84,2,2
1008.84,3,2
1008.85,1,1
1008.85,1,1
1008.85,2,4
1008.85,4,3
1008.85,2,1
1008.85,0,0
1008.85,0,0
1008.86,0,1
1008.86,2,2
1008.86,2,2
1008.86,2,2
1008.86,2,1
1008.87,1,2
1008.87,2,2
1008.87,3,2
1008.87,2,1
1008.87,1,0
1008.87,0,0
1008.87,0,0
1008.88,2,4
1008.88,5,3
1008.88,1,1
1008.88,1,0
1008.88,0,0
1008.89,1,2
1008.89,2,2
1008.89,2,2
1008.89,2,1
1008.89,1,1
1008.89,1,2
1008.89,2,2
1008.9,2,2
1008.9,1,0
1008.9,1,1
1008.9,2,3
1008.9,3,2
1008.91,2,1
1008.91,1,1
1008.91,0,0
1008.91,1,0
1008.91,0,1
1008.91,1,2
1008.91,3,3
1008.92,3,2
1008.92,1,1
1008.92,1,1
1008.92,1,1
1008.93,1,1
1008.93,1,1
1008.93,1,1
1008.93,0,1
1008.93,1,1
1008.94,1,1
1008.94,1,1
1008.94,2,2
1008.94,2,2
1008.94,3,2
1008.94,2,1
1008.94,1,1
1008.95,2,2
1008.95,3,2
1008.95,1,0
1008.95,1,0
1008.95,1,1
1008.96,1,1
1008.96,2,2
1008.96,2,2
1008.96,3,2
1008.96,2,1
1008.96,1,1
1008.96,1,0
1008.97,0,1
1008.97,1,1
1008.97,1,2
1008.97,2,2
1008.98,2,2
1008.98,2,2
1008.98,2,2
1008.98,1,0
1008.98,0,0
1008.98,2,3
1008.98,6,6
1008.98,3,0
1008.99,-2,-2
1008.99,0,1
1008.99,2,2
1008.99,2,2
1009,2,2
1009,2,2
1009,2,2
1009,2,1
1009,1,1
1009,1,1
1009,1,2
1009.01,2,2
1009.01,3,2
1009.01,2,2
1009.01,1,1
1009.01,1,0
1009.02,0,0
1009.02,2,2
1009.02,1,2
1009.02,2,2
1009.02,1,1
1009.03,2,2
1009.03,2,3
1009.03,2,2
1009.03,1,1
1009.03,0,0
1009.03,1,1
1009.03,2,2
1009.04,1,1
1009.04,1,1
1009.04,1,2
1009.04,2,2
1009.05,2,3
1009.05,2,2
1009.05,1,1
1009.05,1,1
1009.05,0,0
1009.05,1,1
1009.05,1,2
1009.06,3,3
1009.06,2,1
1009.06,0,0
1009.06,0,1
1009.06,2,3
1009.07,3,2
1009.07,1,0
1009.07,1,2
1009.07,2,2
1009.07,1,1
1009.07,1,1
1009.07,2,2
1009.08,2,2
1009.08,2,2
1009.08,2,2
1009.08,1,1
1009.08,1,1
1009.09,1,0
1009.09,1,2
1009.09,2,2
1009.09,1,1
1009.09,1,1
1009.09,0,1
1009.09,2,4
1009.1,5,4
1009.1,1,0
1009.1,0,0
1009.1,0,0
1009.1,0,2
1009.11,2,1
1009.11,1,1
1009.11,1,1
1009.11,1,1
1009.12,2,2
1009.12,2,2
1009.12,1,2
1009.12,2,3
1009.12,2,2
1009.12,2,1
1009.12,1,0
1009.13,0,0
1009.13,1,2
1009.13,2,2
1009.13,2,1
1009.13,1,1
1009.14,1,1
1009.14,0,1
1009.14,1,2
1009.14,3,3
1009.14,3,2
1009.14,1,1
1009.14,2,2
1009.15,2,1
1009.15,1,1
1009.15,1,1
1009.15,0,0
1009.15,1,2
1009.16,3,2
1009.16,1,0
1009.16,1,1
1009.16,2,3
1009.16,3,3
1009.16,2,1
1009.16,0,0
1009.17,0,1
1009.17,1,1
1009.17,2,2
1009.17,2,3
1009.17,3,1
1009.18,1,1
1009.18,2,2
1009.18,2,2
1009.18,2,1
1009.19,1,1
1009.19,1,1
1009.19,1,1
1009.19,2,2
1009.19,2,2
1009.19,2,2
1009.19,1,1
1009.2,1,1
1009.2,1,1
1009.2,2,4
1009.2,3,2
1009.2,1,0
1009.21,0,1
1009.21,1,1
1009.21,1,1
1009.21,1,1
1009.21,1,1
1009.21,0,1
1009.21,1,1
1009.22,1,2
1009.22,2,1
1009.22,2,2
1009.22,1,1
1009.22,2,3
1009.23,3,2
1009.23,1,0
1009.23,0,1
1009.23,0,1
1009.23,0,1
1009.23,1,1
1009.23,1,2
1009.24,2,3
1009.24,2,2
1009.24,1,2
1009.24,2,2
1009.25,2,2
1009.25,1,1
1009.25,2,2
1009.25,2,2
1009.25,2,1
1009.25,1,1
1009.25,1,1
1009.25,1,1
1009.26,1,1
1009.26,2,2
1009.26,2,2
1009.26,2,2
1009.27,2,2
1009.27,2,1
1009.27,1,1
1009.27,0,1
1009.27,1,2
1009.28,3,2
1009.28,2,1
1009.28,0,0
1009.28,1,1
1009.28,1,2
1009.28,2,3
1009.28,3,2
1009.29,1,1
1009.29,0,0
1009.29,0,0
1009.29,1,2
1009.29,2,2
1009.3,2,2
1009.3,1,1
1009.3,1,2
1009.3,2,2
1009.3,2,1
1009.3,0,1
1009.3,1,3
1009.31,4,5
1009.31,4,1
1009.31,0,0
1009.31,0,1
1009.32,1,0
1009.32,0,1
1009.32,2,2
1009.32,2,2
1009.32,2,2
1009.32,1,1
1009.32,0,1
1009.33,1,2
1009.33,2,2
1009.33,2,2
1009.33,2,2
1009.33,2,2
1009.34,1,2
1009.34,2,2
1009.34,2,1
1009.34,1,1
1009.34,1,1
1009.34,1,1
1009.34,1,0
1009.35,1,1
1009.35,2,2
1009.35,2,2
1009.35,2,2
1009.35,2,1
1009.36,1,1
1009.36,1,1
1009.36,1,1
1009.36,1,1
1009.36,1,1
1009.37,0,1
1009.37,2,2
1009.37,2,2
1009.37,1,1
1009.37,1,1
1009.37,1,1
1009.37,1,1
1009.38,1,1
1009.38,1,0
1009.38,1,1
1009.38,1,1
1009.39,1,3
1009.39,4,3
1009.39,2,1
1009.39,1,1
1009.39,1,1
1009.39,2,1
1009.39,0,0
1009.4,0,1
1009.4,2,2
1009.4,2,2
1009.4,2,2
1009.4,1,1
1009.41,2,2
1009.41,2,2
1009.41,2,2
1009.41,2,1
1009.41,1,1
1009.41,0,0
1009.41,1,3
1009.42,4,4
1009.42,2,1
1009.42,1,1
1009.42,1,1
1009.42,1,0
1009.43,0,1
1009.43,2,2
1009.43,2,1
1009.43,1,2
1009.43,2,2
1009.43,1,1
1009.43,1,1
1009.44,0,0
1009.44,1,3
1009.44,3,2
1009.44,3,5
1009.44,4,3
1009.45,0,0
1009.45,0,0
1009.45,1,1
1009.45,1,1
1009.46,0,0
1009.46,0,1
1009.46,2,3
1009.46,3,2
1009.46,1,1
1009.46,0,1
1009.46,1,0
1009.47,0,1
1009.47,1,2
1009.47,3,3
1009.47,2,2
1009.47,2,2
1009.48,2,1
1009.48,1,2
1009.48,2,1
1009.48,1,1
1009.48,1,1
1009.48,1,1
1009.48,1,0
1009.49,1,1
1009.49,2,2
1009.49,2,2
1009.49,2,2
1009.49,2,1
1009.5,1,1
1009.5,1,1
1009.5,1,1
1009.5,1,0
1009.5,0,1
1009.5,1,1
1009.5,1,1
1009.51,1,1
1009.51,0,2
1009.51,2,3
1009.51,3,3
1009.52,3,2
1009.52,2,1
1009.52,2,2
1009.52,1,1
1009.52,1,1
1009.53,1,1
1009.53,1,1
1009.53,0,0
1009.53,1,1
1009.53,1,1
1009.53,1,1
1009.53,2,2
1009.54,2,2
1009.54,2,2
1009.54,2,2
1009.54,2,2
1009.54,1,1
1009.55,1,1
1009.55,1,0
1009.55,1,1
1009.55,1,2
1009.55,2,2
1009.55,2,2
1009.55,3,1
1009.56,1,0
1009.56,0,1
1009.56,1,2
1009.56,2,2
1009.56,2,2
1009.57,2,1
1009.57,1,1
1009.57,1,2
1009.57,2,2
1009.57,2,3
1009.57,2,2
1009.57,1,1
1009.58,0,0
1009.58,1,1
1009.58,1,1
1009.58,1,1
1009.59,0,1
1009.59,1,2
1009.59,2,2
1009.59,2,2
1009.59,2,2
1009.59,2,1
1009.59,1,1
1009.6,1,1
1009.6,2,2
1009.6,3,2
1009.6,2,1
1009.6,0,0
1009.61,0,0
1009.61,1,1
1009.61,3,5
1009.61,5,3
1009.61,1,0
1009.62,0,0
1009.62,0,1
1009.62,2,2
1009.62,2,2
1009.62,2,2
1009.62,1,1
1009.62,2,2
1009.63,2,2
1009.63,1,2
1009.63,2,2
1009.63,1,0
1009.63,0,1
1009.64,2,2
1009.64,2,2
1009.64,2,2
1009.64,2,2
1009.64,2,1
1009.64,2,2
1009.64,1,2
1009.65,2,2
1009.65,2,2
1009.65,2,1
1009.65,0,0
1009.66,0,0
1009.66,0,1
1009.66,2,2
1009.66,2,2
1009.66,1,2
1009.66,2,2
1009.66,2,2
1009.67,2,1
1009.67,1,2
1009.67,2,2
1009.67,2,2
1009.67,2,1
1009.68,1,1
1009.68,1,1
1009.68,1,0
1009.68,1,2
1009.68,2,1
1009.68,1,1
1009.68,1,2
1009.69,2,2
1009.69,2,2
1009.69,2,2
1009.69,2,1
1009.69,1,1
1009.7,1,2
1009.7,2,2
1009.7,1,0
1009.7,0,1
1009.71,3,5
1009.71,5,3
1009.71,0,0
1009.71,0,0
1009.71,0,1
1009.71,1,1
1009.71,0,1
1009.71,1,2
1009.72,2,2
1009.72,1,1
1009.72,1,1
1009.72,2,2
1009.73,2,2
1009.73,2,2
1009.73,1,1
1009.73,2,2
1009.73,2,2
1009.73,1,1
1009.73,1,1
1009.74,1,2
1009.74,3,3
1009.74,2,2
1009.74,1,1
1009.74,0,1
1009.75,1,1
1009.75,0,1
1009.75,1,1
1009.75,2,2
1009.75,2,2
1009.75,1,2
1009.75,2,3
1009.76,2,2
1009.76,1,0
1009.76,0,1
1009.76,1,1
1009.76,2,2
1009.77,2,2
1009.77,2,2
1009.77,2,2
1009.77,1,1
1009.77,2,2
1009.77,2,2
1009.77,1,1
1009.78,1,1
1009.78,0,0
1009.78,2,2
1009.78,2,1
1009.79,1,1
1009.79,2,2
1009.79,2,2
1009.79,1,1
1009.79,1,1
1009.8,2,2
1009.8,2,2
1009.8,2,2
1009.8,2,2
1009.8,2,2
1009.8,2,1
1009.8,0,0
1009.81,1,2
1009.81,2,2
1009.81,2,1
1009.81,1,1
1009.81,1,1
1009.82,1,1
1009.82,0,2
1009.82,3,6
1009.82,6,3
1009.82,0,-1
1009.82,0,1
1009.82,2,3
1009.83,2,1
1009.83,0,0
1009.83,0,1
1009.83,2,2
1009.83,2,2
1009.84,2,2
1009.84,1,1
1009.84,2,2
1009.84,2,2
1009.84,1,1
1009.84,1,2
1009.84,2,2
1009.85,2,2
1009.85,1,1
1009.85,2,2
1009.85,2,2
1009.86,2,2
1009.86,2,1
1009.86,1,1
1009.86,1,2
1009.86,2,2
1009.87,2,2
1009.87,1,1
1009.87,1,2
1009.87,2,2
1009.87,2,2
1009.87,2,2
1009.87,2,2
1009.88,1,0
1009.88,0,1
1009.88,1,1
1009.88,1,2
1009.88,2,2
1009.89,2,1
1009.89,2,2
1009.89,2,2
1009.89,1,1
1009.89,0,1
1009.89,2,2
1009.89,2,2
1009.9,2,1
1009.9,1,1
1009.9,1,2
1009.9,2,2
1009.91,2,2
1009.91,2,1
1009.91,1,1
1009.91,2,2
1009.91,3,2
1009.91,1,0
1009.91,0,0
1009.91,1,4
1009.92,5,3
1009.92,2,1
1009.92,0,0
1009.92,0,1
1009.93,2,2
1009.93,1,0
1009.93,0,1
1009.93,2,3
1009.93,3,2
1009.93,2,2
1009.93,1,1
1009.94,1,1
1009.94,2,2
1009.94,2,2
1009.94,2,1
1009.94,1,1
1009.95,1,2
1009.95,3,3
1009.95,1,2
1009.95,2,2
1009.95,1,0
1009.96,0,1
1009.96,1,2
1009.96,2,2
1009.96,2,2
1009.96,2,2
1009.96,1,1
1009.96,1,2
1009.97,2,2
1009.97,2,2
1009.97,2,2
1009.97,1,1
1009.98,1,2
1009.98,2,2
1009.98,1,1
1009.98,0,0
1009.98,0,0
1009.98,0,1
1009.98,2,3
1009.99,3,2
1009.99,2,2
1009.99,2,2
1009.99,1,1
1009.99,1,1
1010,1,2
1010,2,3
1010,1,1
1010,1,0
1010,0,0
1010,2,4
1010,4,5
1010.01,4,2
1010.01,0,0
1010.01,0,0
1010.01,1,1
1010.01,2,2
1010.02,2,2
1010.02,2,2
1010.02,2,1
1010.02,2,1
1010.02,1,1
1010.02,0,0
1010.02,1,1
1010.03,2,2
1010.03,2,2
1010.03,2,1
1010.03,0,0
1010.03,1,2
1010.04,2,2
1010.04,2,1
1010.04,1,2
1010.04,2,2
1010.05,3,3
1010.05,3,2
1010.05,1,0
1010.05,0,0
1010.05,0,1
1010.05,1,1
1010.05,1,2
1010.06,2,2
1010.06,1,1
1010.06,1,1
1010.06,2,2
1010.06,1,2
1010.07,3,3
1010.07,2,2
1010.07,2,1
1010.07,1,1
1010.07,0,0
1010.07,0,1
1010.07,1,1
1010.08,1,1
1010.08,1,2
1010.08,2,3
1010.08,3,2
1010.08,1,1
1010.09,0,1
1010.09,1,1
1010.09,1,1
1010.09,3,5
1010.09,5,1
1010.09,0,-1
1010.09,0,1
1010.1,1,1
1010.1,1,1
1010.1,1,1
1010.1,1,1
1010.1,1,1
1010.11,0,1
1010.11,1,1
1010.11,1,1
1010.11,2,1
1010.11,1,1
1010.11,1,1
1010.11,2,2
1010.12,2,2
1010.12,2,3
1010.12,3,2
1010.12,1,0
1010.13,0,0
1010.13,1,1
1010.13,1,0
1010.13,1,1
1010.13,2,2
1010.14,2,2
1010.14,2,2
1010.14,2,2
1010.14,2,2
1010.14,1,1
1010.14,1,1
1010.14,1,1
1010.15,1,0
1010.15,1,1
1010.15,1,2
1010.15,2,2
1010.15,2,2
1010.16,2,2
1010.16,2,1
1010.16,2,1
1010.16,0,0
1010.16,2,2
1010.16,2,1
1010.16,1,1
1010.17,1,2
1010.17,2,2
1010.17,1,2
1010.17,2,2
1010.18,1,0
1010.18,0,0
1010.18,1,2
1010.18,2,2
1010.18,2,1
1010.18,1,1
1010.18,2,1
1010.18,1,1
1010.19,1,1
1010.19,3,5
1010.19,4,2
1010.19,0,0
1010.2,0,1
1010.2,2,2
1010.2,1,1
1010.2,1,1
1010.2,2,2
1010.2,2,2
1010.2,2,1
1010.21,1,2
1010.21,2,2
1010.21,2,2
1010.21,2,2
1010.21,1,1
1010.22,1,1
1010.22,1,1
1010.22,2,2
1010.22,2,2
1010.22,2,2
1010.23,1,1
1010.23,2,2
1010.23,2,2
1010.23,1,1
1010.23,1,2
1010.23,2,3
1010.23,2,2
1010.24,1,1
1010.24,1,0
1010.24,0,1
1010.24,1,1
1010.25,1,1
1010.25,1,1
1010.25,2,3
1010.25,3,3
1010.25,1,1
1010.25,2,2
1010.25,1,1
1010.26,1,1
1010.26,0,0
1010.26,1,1
1010.26,2,1
1010.26,1,1
1010.27,1,1
1010.27,1,1
1010.27,2,3
1010.27,3,2
1010.27,2,2
1010.27,2,1
1010.27,1,1
1010.28,1,1
1010.28,1,1
1010.28,0,1
1010.28,1,2
1010.28,3,3
1010.29,3,2
1010.29,1,0
1010.29,0,0
1010.29,0,0
1010.29,0,3
1010.3,5,6
1010.3,4,3
1010.3,0,0
1010.3,0,0
1010.3,0,1
1010.3,3,4
1010.3,4,3
1010.31,0,0
1010.31,0,0
1010.31,1,1
1010.31,0,0
1010.32,1,1
1010.32,1,2
1010.32,4,4
1010.32,3,2
1010.32,1,1
1010.32,2,3
1010.32,3,2
1010.33,1,0
1010.33,0,1
1010.33,1,1
1010.33,1,0
1010.33,1,1
1010.34,1,1
1010.34,1,1
1010.34,1,0
1010.34,0,0
1010.34,1,2
1010.34,2,2
1010.34,1,1
1010.35,2,2
1010.35,2,2
1010.35,3,2
1010.35,2,1
1010.35,1,0
1010.36,0,0
1010.36,0,0
1010.36,1,1
1010.36,2,2
1010.36,2,2
1010.36,1,1
1010.36,2,3
1010.37,4,3
1010.37,2,1
1010.37,1,1
1010.37,0,0
1010.37,0,1
1010.38,2,2
1010.38,1,1
1010.38,1,0
1010.38,2,5
1010.39,5,4
1010.39,1,0
1010.39,0,-1
1010.39,0,1
1010.39,1,2
1010.39,2,2
1010.39,3,3
1010.4,1,1
1010.4,1,0
1010.4,0,0
1010.4,1,2
1010.4,4,5
1010.41,4,2
1010.41,0,0
1010.41,1,2
1010.41,2,2
1010.41,1,1
1010.41,0,0
1010.41,0,0
1010.42,0,1
1010.42,3,4
1010.42,4,4
1010.42,2,1
1010.42,0,0
1010.43,0,1
1010.43,1,1
1010.43,1,1
1010.43,1,1
1010.43,1,1
1010.43,2,1
1010.43,0,1
1010.44,0,0
1010.44,0,1
1010.44,0,0
1010.44,1,2
1010.45,5,6
1010.45,7,5
1010.45,3,1
1010.45,0,-1
1010.45,-1,0
1010.45,0,0
1010.45,1,1
1010.45,1,1
1010.46,0,2
1010.46,3,4
1010.46,5,3
1010.46,2,2
1010.47,2,2
1010.47,1,1
1010.47,1,1
1010.47,0,0
1010.47,0,0
1010.48,0,0
1010.48,1,2
1010.48,2,4
1010.48,4,4
1010.48,2,1
1010.48,1,0
1010.48,0,1
1010.49,2,2
1010.49,2,2
1010.49,1,0
1010.49,1,2
1010.49,2,2
1010.5,1,1
1010.5,1,0
1010.5,0,1
1010.5,2,3
1010.5,4,4
1010.5,4,3
1010.5,2,0
1010.51,0,0
1010.51,0,1
1010.51,1,1
1010.51,0,1
1010.52,1,1
1010.52,0,1
1010.52,2,3
1010.52,4,3
1010.52,1,0
1010.52,0,1
1010.52,2,3
1010.53,3,2
1010.53,1,0
1010.53,0,0
1010.53,0,0
1010.53,0,0
1010.54,0,1
1010.54,1,3
1010.54,5,4
1010.54,4,1
1010.54,1,2
1010.54,2,0
1010.54,0,1
1010.55,2,3
1010.55,4,2
1010.55,0,0
1010.55,0,0
1010.55,1,1
1010.56,1,1
1010.56,1,2
1010.56,2,2
1010.56,2,2
1010.56,3,2
1010.57,1,0
1010.57,1,1
1010.57,1,2
1010.57,1,1
1010.57,1,1
1010.57,1,1
1010.57,1,2
1010.58,2,2
1010.58,3,3
1010.58,2,2
1010.58,1,1
1010.59,1,1
1010.59,0,0
1010.59,0,1
1010.59,1,2
1010.59,2,2
1010.59,2,2
1010.59,2,2
1010.6,2,1
1010.6,1,1
1010.6,1,0
1010.6,0,1
1010.6,1,2
1010.61,2,2
1010.61,3,3
1010.61,2,1
1010.61,1,0
1010.61,0,2
1010.61,1,1
1010.61,1,1
1010.62,1,1
1010.62,1,1
1010.62,1,1
1010.62,1,1
1010.62,0,1
1010.63,1,1
1010.63,1,1
1010.63,1,1
1010.63,2,3
1010.63,3,3
1010.63,1,1
1010.63,0,1
1010.64,2,2
1010.64,1,1
1010.64,1,1
1010.64,1,1
1010.64,2,3
1010.65,3,2
1010.65,1,2
1010.65,3,3
1010.65,2,0
1010.66,0,0
1010.66,1,1
1010.66,2,2
1010.66,2,2
1010.66,2,2
1010.66,1,1
1010.66,1,1
1010.67,1,1
1010.67,1,1
1010.67,1,2
1010.67,3,3
1010.67,2,3
1010.68,2,2
1010.68,2,1
1010.68,1,1
1010.68,0,1
1010.68,1,1
1010.68,1,1
1010.68,0,0
1010.69,1,1
1010.69,1,1
1010.69,1,1
1010.69,2,2
1010.69,2,2
1010.7,2,2
1010.7,2,2
1010.7,2,2
1010.7,1,1
1010.7,1,2
1010.7,2,2
1010.7,1,1
1010.71,2,2
1010.71,2,2
1010.71,1,2
1010.71,3,2
1010.71,1,1
1010.72,1,1
1010.72,1,0
1010.72,0,1
1010.72,2,2
1010.73,2,2
1010.73,2,2
1010.73,1,1
1010.73,1,1
1010.73,1,1
1010.73,1,1
1010.73,2,2
1010.74,3,2
1010.74,2,2
1010.74,2,1
1010.74,1,1
1010.74,2,1
1010.75,0,0
1010.75,0,0
1010.75,1,2
1010.75,3,3
1010.75,3,2
1010.75,1,1
1010.75,1,1
1010.76,0,0
1010.76,1,2
1010.76,3,2
1010.76,2,3
1010.76,2,2
1010.77,1,0
1010.77,0,0
1010.77,0,0
1010.77,1,2
1010.77,3,3
1010.77,3,3
1010.77,1,1
1010.78,0,1
1010.78,1,1
1010.78,2,2
1010.78,2,2
1010.79,1,0
1010.79,0,1
1010.79,2,2
1010.79,2,2
1010.79,2,2
1010.79,1,2
1010.79,2,2
1010.8,2,2
1010.8,1,1
1010.8,1,1
1010.8,1,0
1010.8,1,1
1010.81,1,1
1010.81,1,2
1010.81,2,2
1010.81,2,2
1010.81,2,2
1010.82,2,2
1010.82,1,1
1010.82,1,1
1010.82,1,0
1010.82,1,1
1010.82,2,2
1010.82,2,1
1010.83,1,2
1010.83,2,2
1010.83,2,2
1010.83,2,2
1010.83,1,1
1010.84,1,1
1010.84,1,0
1010.84,1,1
1010.84,2,2
1010.84,2,2
1010.84,2,1
1010.84,0,-1
1010.85,-2,-3
1010.85,-1,3
1010.85,3,2
1010.85,1,3
1010.86,6,8
1010.86,9,6
1010.86,4,1
1010.86,1,0
1010.86,3,9
1010.86,13,12
1010.86,7,0
1010.87,-10,-21
1010.87,-22,-19
1010.87,-13,-4
1010.87,7,21
1010.87,26,24
1010.88,14,2
1010.88,-5,-10
1010.88,-7,0
1010.88,4,4
1010.88,3,7
1010.88,7,2
1010.88,1,3
1010.89,-3,-20
1010.89,-27,-23
1010.89,-15,-6
1010.89,9,31
1010.9,46,55
1010.9,46,24
1010.9,3,-7
1010.9,-14,-23
1010.9,-26,-18
1010.91,-5,5
1010.91,8,4
1010.91,-5,-17
1010.91,-20,-15
1010.91,-3,9
1010.91,11,4
1010.91,-5,-17
1010.92,-12,4
1010.92,16,19
1010.92,10,3
1010.92,11,23
1010.93,24,17
1010.93,8,2
1010.93,-1,-6
1010.93,-6,-2
1010.93,-2,-5
1010.93,-9,-11
1010.93,-14,-17
1010.94,-13,-10
1010.94,-4,7
1010.94,19,27
1010.94,24,17
1010.95,17,15
1010.95,20,28
1010.95,19,0
1010.95,-15,-26
1010.95,-26,-20
1010.95,-11,2
1010.95,8,11
1010.96,11,0
1010.96,-10,-12
1010.96,-2,14
1010.96,18,7
1010.96,3,4
1010.97,0,-2
1010.97,-2,2
1010.97,6,5
1010.97,4,2
1010.97,1,0
1010.97,1,4
1010.97,4,1
1010.98,-2,-4
1010.98,-3,-3
1010.98,-4,-4
1010.98,-3,0
1010.99,2,4
1010.99,2,1
1010.99,0,1
1010.99,4,9
1010.99,11,13
1011,12,8
1011,4,0
1011,-2,-4
1011,-5,-6
1011,-6,-6
1011,-3,1
1011,5,6
1011.01,4,2
1011.01,2,5
1011.01,7,9
1011.01,9,7
1011.01,4,1
1011.02,0,-1
1011.02,-2,-5
1011.02,-5,-2
1011.02,0,-1
1011.02,-4,-6
1011.02,-1,4
1011.02,10,13
1011.03,15,15
1011.03,9,5
1011.03,5,4
1011.03,0,-3
1011.04,-6,-9
1011.04,-12,-8
1011.04,-2,1
1011.04,2,3
1011.04,3,4
1011.04,6,8
1011.04,7,5
1011.05,5,5
1011.05,6,5
1011.05,5,7
1011.05,3,-9
1011.05,-16,-15
1011.06,-6,2
1011.06,8,8
1011.06,3,-1
1011.06,-3,-5
1011.06,-4,0
1011.07,8,14
1011.07,14,9
1011.07,4,2
1011.07,2,0
1011.07,-3,-4
1011.07,0,2
1011.07,5,5
1011.08,5,5
1011.08,3,1
1011.08,0,0
1011.08,-2,-3
1011.09,-4,-4
1011.09,-3,0
1011.09,2,5
1011.09,6,6
1011.09,5,5
1011.09,6,6
1011.09,5,3
1011.1,0,0
1011.1,-3,-4
1011.1,-4,-4
1011.1,-3,-1
1011.1,2,5
1011.11,7,6
1011.11,5,4
1011.11,5,3
1011.11,2,2
1011.11,1,2
1011.11,3,2
1011.11,1,2
1011.12,2,0
1011.12,-2,-4
1011.12,-5,-3
1011.12,-1,0
1011.12,3,5
1011.13,7,8
1011.13,7,6
1011.13,3,1
1011.13,-1,-2
1011.13,-4,-5
1011.13,-3,1
1011.13,5,4
1011.14,0,0
1011.14,1,3
1011.14,5,5
1011.14,5,6
1011.15,7,7
1011.15,6,5
1011.15,2,-1
1011.15,-4,-5
1011.15,-4,-3
1011.16,-2,-2
1011.16,0,2
1011.16,3,4
1011.16,3,3
1011.16,3,4
1011.16,5,7
1011.16,7,6
1011.17,3,0
1011.17,-2,-3
1011.17,-2,-2
1011.17,-1,-1
1011.17,1,2
1011.18,3,6
1011.18,7,7
1011.18,6,3
1011.18,1,1
1011.18,2,1
1011.18,0,0
1011.18,-1,0
1011.19,-1,0
1011.19,0,0
1011.19,1,3
1011.19,5,6
1011.2,5,3
1011.2,1,0
1011.2,0,1
1011.2,2,1
1011.2,0,-1
1011.2,-1,0
1011.2,0,1
1011.21,3,3
1011.21,4,4
1011.21,3,3
1011.21,4,4
1011.21,3,2
1011.22,1,0
1011.22,0,0
1011.22,0,0
1011.22,0,0
1011.22,0,1
1011.22,2,2
1011.22,2,2
1011.23,3,4
1011.23,4,4
1011.23,3,3
1011.23,2,1
1011.23,0,-1
1011.24,-1,0
1011.24,0,1
1011.24,2,4
1011.24,5,2
1011.24,0,0
1011.25,1,2
1011.25,3,2
1011.25,3,2
1011.25,0,0
1011.25,0,2
1011.25,4,3
1011.25,1,0
1011.26,0,-1
1011.26,0,0
1011.26,2,1
1011.26,1,1
1011.27,2,3
1011.27,3,4
1011.27,3,2
1011.27,1,0
1011.27,0,0
1011.27,0,0
1011.27,0,1
1011.28,2,3
1011.28,3,3
1011.28,3,5
1011.28,6,3
1011.28,0,0
1011.29,-1,0
1011.29,0,1
1011.29,0,0
1011.29,1,1
1011.29,1,2
1011.29,2,2
1011.29,2,3
1011.3,2,1
1011.3,0,1
1011.3,2,3
1011.3,1,0
1011.3,0,1
1011.31,3,4
1011.31,3,2
1011.31,1,1
1011.31,1,0
1011.31,0,0
1011.31,2,3
1011.31,4,3
1011.32,1,0
1011.32,-1,-1
1011.32,0,0
1011.32,2,2
1011.32,1,1
1011.33,2,3
1011.33,3,4
1011.33,3,4
1011.33,3,3
1011.34,2,1
1011.34,0,0
1011.34,2,2
1011.34,0,0
1011.34,0,0
1011.34,1,2
1011.34,2,3
1011.35,3,2
1011.35,2,3
1011.35,3,1
1011.35,0,0
1011.35,0,0
1011.36,0,1
1011.36,2,2
1011.36,1,0
1011.36,0,2
1011.36,3,3
1011.36,2,2
1011.36,2,2
1011.37,2,2
1011.37,2,2
1011.37,0,0
1011.37,0,1
1011.37,2,3
1011.38,3,5
1011.38,4,3
1011.38,3,2
1011.38,2,1
1011.38,0,0
1011.38,0,0
1011.38,-1,0
1011.39,0,0
1011.39,0,1
1011.39,2,3
1011.39,4,6
1011.39,6,5
1011.4,2,1
1011.4,1,1
1011.4,2,2
1011.4,2,1
1011.4,1,1
1011.4,1,0
1011.41,0,0
1011.41,0,1
1011.41,2,2
1011.41,1,1
1011.41,1,2
1011.42,2,2
1011.42,3,3
1011.42,1,1
1011.42,1,0
1011.42,0,0
1011.43,0,2
1011.43,4,5
1011.43,3,1
1011.43,1,1
1011.43,1,1
1011.43,1,1
1011.43,1,1
1011.44,1,0
1011.44,0,2
1011.44,2,1
1011.44,0,0
1011.44,0,2
1011.45,2,2
1011.45,3,2
1011.45,3,4
1011.45,3,2
1011.45,1,0
1011.45,0,0
1011.45,1,1
1011.46,2,2
1011.46,1,0
1011.46,0,1
1011.46,2,2
1011.46,1,1
1011.47,2,2
1011.47,2,2
1011.47,2,2
1011.47,1,0
1011.47,-1,0
1011.47,1,3
1011.47,5,5
1011.48,4,1
1011.48,0,0
1011.48,1,2
1011.48,3,3
1011.49,3,1
1011.49,1,1
1011.49,1,1
1011.49,0,0
1011.49,0,-1
1011.5,0,1
1011.5,4,5
1011.5,4,3
1011.5,1,0
1011.5,1,3
1011.5,4,3
1011.5,2,1
1011.51,1,1
1011.51,0,0
1011.51,0,1
1011.51,1,1
1011.51,2,2
1011.52,2,2
1011.52,2,0
1011.52,0,0
1011.52,1,2
1011.52,2,2
1011.52,2,2
1011.52,2,1
1011.53,1,1
1011.53,2,2
1011.53,2,2
1011.53,1,2
1011.54,2,2
1011.54,1,0
1011.54,0,0
1011.54,1,3
1011.54,5,4
1011.54,3,2
1011.54,0,0
1011.54,0,0
1011.55,1,2
1011.55,3,2
1011.55,2,3
1011.55,3,1
1011.56,0,-1
1011.56,0,0
1011.56,1,2
1011.56,2,2
1011.56,1,2
1011.56,3,4
1011.56,3,2
1011.57,1,0
1011.57,0,0
1011.57,1,1
1011.57,1,1
1011.57,1,1
1011.58,1,1
1011.58,2,2
1011.58,1,1
1011.58,2,2
1011.58,3,3
1011.59,2,2
1011.59,1,0
1011.59,0,1
1011.59,1,1
1011.59,1,2
1011.59,2,3
1011.59,2,1
1011.6,1,1
1011.6,0,1
1011.6,2,2
1011.6,2,2
1011.61,1,0
1011.61,0,1
1011.61,1,1
1011.61,1,1
1011.61,2,2
1011.61,3,2
1011.61,2,2
1011.62,2,1
1011.62,1,1
1011.62,0,1
1011.62,1,1
1011.62,1,1
1011.63,2,2
1011.63,1,1
1011.63,1,2
1011.63,3,3
1011.63,2,1
1011.63,2,3
1011.63,4,2
1011.64,0,0
1011.64,0,1
1011.64,1,1
1011.64,0,0
1011.64,0,0
1011.65,1,2
1011.65,3,3
1011.65,3,3
1011.65,3,2
1011.65,1,1
1011.65,1,1
1011.65,1,2
1011.66,2,1
1011.66,1,2
1011.66,2,2
1011.66,2,2
1011.66,2,1
1011.67,1,2
1011.67,2,2
1011.67,2,1
1011.67,1,1
1011.68,2,2
1011.68,3,2
1011.68,2,1
1011.68,1,1
1011.68,1,1
1011.68,0,0
1011.68,0,0
1011.69,1,1
1011.69,2,2
1011.69,2,2
1011.69,1,2
1011.69,2,2
1011.7,2,3
1011.7,2,2
1011.7,2,3
1011.7,2,1
1011.7,1,0
1011.7,0,0
1011.7,0,1
1011.71,2,3
1011.71,3,2
1011.71,2,1
1011.71,0,0
1011.71,0,-1
1011.72,0,1
1011.72,4,6
1011.72,6,3
1011.72,1,0
1011.72,0,0
1011.72,1,1
1011.72,1,2
1011.73,3,3
1011.73,3,2
1011.73,1,1
1011.73,1,0
1011.73,0,0
1011.74,0,1
1011.74,1,2
1011.74,2,2
1011.74,1,1
1011.74,1,2
1011.74,3,3
1011.74,2,2
1011.75,2,1
1011.75,1,0
1011.75,0,0
1011.75,2,1
1011.76,1,0
1011.76,0,1
1011.76,2,3
1011.76,4,4
1011.76,2,2
1011.77,2,1
1011.77,1,1
1011.77,1,2
1011.77,1,1
1011.77,0,0
1011.77,0,0
1011.77,1,1
1011.78,2,2
1011.78,1,1
1011.78,2,2
1011.78,3,2
1011.78,2,2
1011.79,2,2
1011.79,1,1
1011.79,1,1
1011.79,1,1
1011.79,1,1
1011.79,1,1
1011.79,1,1
1011.8,0,0
1011.8,0,0
1011.8,1,3
1011.8,4,4
1011.81,3,2
1011.81,1,0
1011.81,0,0
1011.81,0,1
1011.81,2,3
1011.81,3,2
1011.81,2,1
1011.81,1,0
1011.82,1,1
1011.82,1,1
1011.82,0,1
1011.82,2,3
1011.83,4,5
1011.83,4,3
1011.83,1,0
1011.83,0,1
1011.83,1,1
1011.84,0,0
1011.84,0,0
1011.84,0,1
1011.84,2,2
1011.84,2,2
1011.84,2,2
1011.84,2,2
1011.85,2,2
1011.85,2,1
1011.85,1,1
1011.85,1,1
1011.85,1,2
1011.86,3,3
1011.86,3,2
1011.86,0,0
1011.86,0,1
1011.86,1,1
1011.86,1,1
1011.86,1,1
1011.87,1,1
1011.87,2,1
1011.87,1,0
1011.87,0,1
1011.88,1,1
1011.88,1,2
1011.88,4,3
1011.88,2,1
1011.88,0,0
1011.88,0,2
1011.88,2,1
1011.89,0,0
1011.89,1,3
1011.89,4,3
1011.89,3,1
1011.89,0,0
1011.9,0,1
1011.9,1,1
1011.9,1,1
1011.9,1,1
1011.9,2,2
1011.9,2,2
1011.9,2,2
1011.91,2,2
1011.91,1,1
1011.91,1,2
1011.91,2,2
1011.91,2,1
1011.92,1,1
1011.92,1,1
1011.92,1,2
1011.92,3,3
1011.92,2,1
1011.93,0,1
1011.93,2,2
1011.93,1,1
1011.93,1,0
1011.93,1,1
1011.93,1,1
1011.93,2,3
1011.94,3,1
1011.94,0,0
1011.94,0,1
1011.94,2,2
1011.95,2,2
1011.95,2,2
1011.95,3,2
1011.95,1,1
1011.95,1,1
1011.95,1,1
1011.95,1,1
1011.96,1,0
1011.96,0,1
1011.96,1,2
1011.96,3,2
1011.96,1,0
1011.97,1,1
1011.97,2,2
1011.97,2,1
1011.97,1,1
1011.97,1,1
1011.97,1,1
1011.97,1,2
1011.98,3,5
1011.98,4,2
1011.98,0,0
1011.98,0,0
1011.98,1,1
1011.99,2,2
1011.99,2,2
1011.99,2,2
1011.99,2,2
1011.99,1,2
1011.99,2,2
1011.99,1,1
1012,1,1
1012,1,1
1012,1,2
1012,2,3
1012,3,2
1012.01,1,1
1012.01,0,0
1012.01,1,1
1012.01,2,1
1012.02,0,0
1012.02,1,2
1012.02,2,3
1012.02,3,3
1012.02,1,1
1012.02,0,1
1012.02,1,0
1012.03,1,2
1012.03,3,4
1012.03,3,2
1012.03,1,0
1012.03,0,0
1012.04,0,1
1012.04,2,3
1012.04,2,1
1012.04,0,1
1012.04,2,2
1012.04,2,2
1012.04,2,2
1012.05,1,0
1012.05,0,0
1012.05,1,3
1012.05,3,4
1012.05,2,1
1012.06,1,1
1012.06,1,0
1012.06,0,0
1012.06,0,1
1012.06,2,3
1012.06,4,4
1012.06,4,1
1012.07,0,0
1012.07,0,0
1012.07,1,3
1012.07,3,3
1012.08,1,1
1012.08,1,1
1012.08,1,0
1012.08,0,0
1012.08,0,1
1012.08,1,2
1012.08,2,2
1012.09,2,2
1012.09,1,2
1012.09,2,2
1012.09,3,2
1012.09,2,1
1012.1,1,1
1012.1,1,1
1012.1,0,0
1012.1,1,0
1012.1,0,1
1012.11,1,1
1012.11,1,2
1012.11,2,2
1012.11,3,3
1012.11,2,1
1012.11,1,1
1012.11,1,2
1012.12,3,3
1012.12,1,0
1012.12,1,1
1012.12,2,2
1012.12,1,1
1012.13,1,1
1012.13,2,2
1012.13,2,2
1012.13,1,1
1012.13,1,1
1012.13,2,2
1012.13,2,2
1012.14,2,2
1012.14,2,1
1012.14,1,1
1012.14,1,1
1012.15,1,1
1012.15,2,4
1012.15,3,3
1012.15,3,1
1012.15,0,0
1012.15,0,1
1012.15,2,2
1012.16,2,2
1012.16,2,2
1012.16,2,2
1012.16,1,1
1012.16,1,1
1012.17,2,2
1012.17,2,2
1012.17,2,2
1012.17,1,1
1012.17,1,3
1012.17,3,2
1012.17,0,0
1012.18,1,1
1012.18,1,0
1012.18,1,1
1012.18,1,2
1012.18,2,2
1012.19,2,2
1012.19,2,2
1012.19,2,2
1012.19,1,1
1012.19,1,2
1012.2,2,2
1012.2,1,0
1012.2,0,0
1012.2,1,1
1012.2,2,2
1012.2,2,1
1012.2,1,1
1012.21,1,1
1012.21,1,2
1012.21,2,3
1012.21,4,3
1012.22,3,2
1012.22,1,0
1012.22,0,0
1012.22,0,0
1012.22,0,1
1012.22,2,3
1012.22,3,2
1012.23,1,1
1012.23,2,2
1012.23,2,1
1012.23,1,1
1012.23,1,1
1012.24,2,4
1012.24,4,3
1012.24,2,1
1012.24,1,1
1012.24,1,1
1012.24,1,0
1012.24,0,0
1012.25,1,1
1012.25,1,1
1012.25,1,1
1012.25,1,1
1012.25,1,1
1012.26,1,1
1012.26,1,2
1012.26,3,3
1012.26,3,1
1012.27,1,2
1012.27,2,1
1012.27,1,1
1012.27,2,1
1012.27,1,1
1012.27,2,2
1012.27,1,1
1012.28,1,1
1012.28,2,3
1012.28,3,2
1012.28,2,2
1012.28,2,1
1012.29,0,0
1012.29,0,0
1012.29,0,2
1012.29,3,5
1012.29,5,4
1012.29,2,1
1012.29,0,0
1012.3,0,0
1012.3,0,1
1012.3,2,2
1012.3,2,2
1012.3,1,1
1012.31,1,1
1012.31,2,3
1012.31,3,2
1012.31,2,1
1012.31,1,0
1012.31,0,1
1012.31,1,1
1012.32,0,0
1012.32,1,1
1012.32,3,5
1012.32,5,4
1012.32,2,1
1012.33,1,1
1012.33,0,0
1012.33,0,1
1012.33,2,2
1012.33,2,2
1012.33,1,1
1012.33,0,0
1012.34,1,1
1012.34,1,1
1012.34,1,2
1012.34,2,3
1012.35,2,2
1012.35,2,1
1012.35,1,1
1012.35,1,1
1012.35,1,2
1012.36,2,3
1012.36,4,2
1012.36,2,1
1012.36,0,0
1012.36,0,1
1012.36,1,2
1012.36,3,2
1012.37,2,1
1012.37,1,0
1012.37,0,1
1012.37,2,3
1012.37,2,2
1012.38,1,0
1012.38,0,0
1012.38,1,1
1012.38,1,2
1012.38,2,2
1012.38,2,3
1012.38,3,2
1012.39,1,1
1012.39,1,1
1012.39,0,0
1012.39,1,1
1012.39,1,1
1012.4,1,2
1012.4,4,3
1012.4,2,1
1012.4,1,1
1012.4,1,1
1012.4,0,0
1012.4,0,0
1012.41,1,2
1012.41,3,4
1012.41,3,2
1012.41,0,1
1012.42,1,0
1012.42,0,2
1012.42,2,1
1012.42,0,0
1012.42,0,1
1012.42,2,3
1012.42,3,3
1012.43,1,1
1012.43,1,0
1012.43,1,1
1012.43,1,2
1012.43,2,2
1012.44,2,2
1012.44,2,2
1012.44,2,1
1012.44,1,1
1012.44,1,1
1012.45,1,1
1012.45,1,1
1012.45,1,0
1012.45,1,0
1012.45,0,1
1012.45,1,2
1012.45,2,3
1012.46,3,3
1012.46,3,3
1012.46,1,0
1012.46,0,0
1012.47,0,0
1012.47,0,0
1012.47,0,1
1012.47,1,1
1012.47,1,2
1012.47,2,2
1012.47,2,3
1012.47,4,3
1012.48,2,0
1012.48,0,0
1012.48,1,2
1012.48,2,2
1012.49,2,1
1012.49,1,1
1012.49,1,1
1012.49,1,1
1012.49,1,0
1012.49,1,2
1012.49,2,2
1012.5,3,5
1012.5,4,2
1012.5,1,0
1012.5,0,0
1012.5,1,2
1012.51,2,2
1012.51,2,2
1012.51,1,1
1012.51,1,1
1012.51,2,2
1012.51,2,2
1012.51,2,2
1012.52,2,2
1012.52,2,1
1012.52,1,1
1012.52,0,2
1012.52,2,1
1012.53,1,2
1012.53,2,2
1012.53,3,1
1012.53,1,0
1012.54,1,2
1012.54,2,2
1012.54,2,2
1012.54,1,1
1012.54,0,0
1012.54,1,1
1012.54,2,2
1012.55,2,2
1012.55,2,2
1012.55,2,2
1012.55,2,2
1012.55,1,1
1012.56,1,1
1012.56,1,1
1012.56,1,1
1012.56,1,1
1012.56,1,1
1012.56,1,0
1012.56,0,0
1012.57,0,1
1012.57,2,4
1012.57,5,5
1012.57,3,1
1012.57,0,0
1012.58,0,1
1012.58,1,2
1012.58,3,1
1012.58,0,0
1012.58,0,1
1012.58,1,1
1012.58,2,6
1012.59,6,4
1012.59,2,1
1012.59,0,0
1012.59,1,1
1012.59,1,1
1012.6,1,0
1012.6,0,1
1012.6,2,1
1012.6,1,0
1012.61,1,1
1012.61,1,2
1012.61,3,3
1012.61,2,1
1012.61,2,2
1012.61,2,1
1012.61,1,1
1012.62,1,1
1012.62,1,1
1012.62,1,1
1012.62,1,0
1012.62,1,1
1012.63,1,1
1012.63,1,1
1012.63,1,2
1012.63,3,4
1012.63,3,2
1012.63,0,0
1012.63,1,2
1012.64,2,2
1012.64,1,1
1012.64,0,1
1012.64,2,2
1012.64,1,0
1012.65,1,1
1012.65,2,3
1012.65,4,2
1012.65,1,1
1012.65,0,0
1012.65,1,2
1012.65,2,2
1012.66,2,1
1012.66,1,1
1012.66,1,1
1012.66,2,2
1012.66,1,1
1012.67,1,2
1012.67,2,3
1012.67,3,1
1012.67,0,0
1012.67,1,3
1012.67,4,5
1012.67,4,2
1012.68,1,0
1012.68,0,0
1012.68,1,1
1012.68,1,2
1012.69,2,2
1012.69,2,2
1012.69,2,2
1012.69,1,1
1012.69,0,1
1012.7,1,1
1012.7,2,2
1012.7,1,1
1012.7,1,1
1012.7,1,2
1012.7,2,2
1012.7,2,2
1012.71,3,3
1012.71,3,3
1012.71,0,1
1012.71,0,0
1012.71,0,0
1012.72,1,1
1012.72,2,2
1012.72,3,3
1012.72,1,1
1012.72,1,1
1012.72,1,1
1012.72,1,0
1012.73,1,1
1012.73,1,1
1012.73,1,1
1012.73,1,2
1012.74,3,4
1012.74,4,4
1012.74,1,0
1012.74,0,0
1012.74,0,1
1012.74,1,1
1012.74,1,0
1012.74,0,1
1012.75,2,2
1012.75,2,1
1012.75,1,2
1012.75,1,1
1012.76,2,2
1012.76,2,2
1012.76,2,2
1012.76,2,1
1012.76,1,1
1012.76,2,1
1012.76,0,0
1012.77,2,5
1012.77,5,4
1012.77,1,0
1012.77,0,0
1012.77,0,0
1012.78,0,1
1012.78,1,0
1012.78,1,1
1012.78,1,2
1012.78,2,3
1012.79,3,1
1012.79,0,1
1012.79,1,1
1012.79,1,1
1012.79,1,2
1012.79,3,3
1012.79,3,2
1012.8,2,2
1012.8,1,0
1012.8,0,1
1012.8,2,2
1012.81,2,1
1012.81,0,0
1012.81,1,0
1012.81,0,0
1012.81,1,2
1012.81,3,3
1012.81,4,4
1012.82,3,2
1012.82,0,0
1012.82,0,0
1012.82,2,1
1012.82,1,1
1012.83,1,2
1012.83,2,2
1012.83,2,1
1012.83,1,2
1012.83,3,2
1012.83,1,1
1012.83,0,1
1012.84,0,1
1012.84,2,2
1012.84,2,2
1012.84,1,1
1012.84,1,2
1012.85,2,2
1012.85,2,3
1012.85,2,2
1012.85,2,1
1012.85,1,1
1012.85,1,0
1012.85,0,1
1012.86,1,1
1012.86,1,0
1012.86,1,1
1012.86,1,1
1012.86,2,2
1012.87,2,3
1012.87,3,3
1012.87,2,0
1012.87,0,0
1012.88,0,2
1012.88,4,3
1012.88,1,0
1012.88,0,1
1012.88,2,2
1012.88,2,2
1012.88,1,1
1012.89,1,1
1012.89,1,1
1012.89,1,1
1012.89,1,1
1012.89,1,2
1012.9,3,3
1012.9,3,2
1012.9,1,2
1012.9,1,0
1012.9,0,0
1012.9,1,2
1012.9,3,3
1012.91,2,1
1012.91,1,1
1012.91,1,2
1012.91,3,2
1012.91,2,2
1012.92,1,1
1012.92,1,0
1012.92,0,0
1012.92,0,2
1012.92,2,3
1012.92,3,3
1012.92,3,2
1012.93,1,1
1012.93,2,2
1012.93,1,1
1012.93,1,0
1012.93,1,2
1012.94,1,2
1012.94,3,2
1012.94,2,1
1012.94,1,1
1012.95,1,0
1012.95,0,-1
1012.95,0,3
1012.95,5,4
1012.95,2,2
1012.95,2,3
1012.95,4,2
1012.96,1,0
1012.96,0,0
1012.96,1,1
1012.96,1,1
1012.96,1,1
1012.97,1,0
1012.97,0,0
1012.97,1,1
1012.97,2,2
1012.97,2,1
1012.97,1,2
1012.97,2,2
1012.98,2,2
1012.98,2,2
1012.98,2,1
1012.98,1,1
1012.98,1,1
1012.99,1,1
1012.99,2,2
1012.99,2,2
1012.99,2,2
1012.99,2,2
1012.99,2,2
1012.99,1,1
1013,0,0
1013,1,1
1013,1,1
1013,1,1
1013.01,2,3
1013.01,4,4
1013.01,4,1
1013.01,0,0
1013.01,0,0
1013.01,0,0
1013.01,2,2
1013.01,2,2
1013.02,2,2
1013.02,1,1
1013.02,0,1
1013.02,0,1
1013.03,1,2
1013.03,3,3
1013.03,2,1
1013.03,1,1
1013.03,1,3
1013.04,4,4
1013.04,3,1
1013.04,-1,-1
1013.04,0,2
1013.04,2,3
1013.04,3,3
1013.04,3,3
1013.05,1,0
1013.05,1,1
1013.05,1,1
1013.05,1,1
1013.05,0,0
1013.06,1,1
1013.06,1,1
1013.06,1,0
1013.06,1,1
1013.06,2,3
1013.06,4,3
1013.06,2,2
1013.07,3,3
1013.07,2,2
1013.07,2,1
1013.07,1,0
1013.08,0,0
1013.08,1,1
1013.08,1,2
1013.08,1,1
1013.08,2,2
1013.08,2,2
1013.08,2,1
1013.09,2,3
1013.09,2,2
1013.09,1,0
1013.09,0,1
1013.09,1,1
1013.1,1,0
1013.1,1,1
1013.1,1,1
1013.1,0,0
1013.1,2,2
1013.1,3,3
1013.1,4,3
1013.11,3,3
1013.11,2,0
1013.11,0,0
1013.11,0,0
1013.11,0,1
1013.12,1,1
1013.12,2,2
1013.12,2,2
1013.12,2,2
1013.12,1,0
1013.13,1,3
1013.13,5,4
1013.13,3,1
1013.13,0,0
1013.13,0,1
1013.13,1,2
1013.13,3,3
1013.14,2,2
1013.14,2,2
1013.14,2,2
1013.14,2,0
1013.15,-1,0
1013.15,0,1
1013.15,2,2
1013.15,2,2
1013.15,3,3
1013.15,2,2
1013.15,1,1
1013.16,1,1
1013.16,2,2
1013.16,1,1
1013.16,0,0
1013.16,0,1
1013.17,2,2
1013.17,2,2
1013.17,2,2
1013.17,2,2
1013.17,2,2
1013.17,2,1
1013.17,1,0
1013.18,0,1
1013.18,1,1
1013.18,1,2
1013.18,2,2
1013.18,2,2
1013.19,1,1
1013.19,2,2
1013.19,3,2
1013.19,1,0
1013.19,1,1
1013.19,1,1
1013.19,2,2
1013.2,2,2
1013.2,2,2
1013.2,2,2
1013.2,1,1
1013.2,1,1
1013.21,1,1
1013.21,1,1
1013.21,1,0
1013.21,0,0
1013.22,0,0
1013.22,2,3
1013.22,3,4
1013.22,4,4
1013.22,4,1
1013.22,0,-1
1013.22,0,0
1013.23,0,1
1013.23,2,2
1013.23,1,1
1013.23,1,1
1013.23,2,3
1013.24,4,2
1013.24,1,0
1013.24,0,1
1013.24,1,1
1013.24,1,1
1013.24,1,1
1013.24,2,3
1013.25,3,2
1013.25,1,1
1013.25,1,1
1013.25,1,1
1013.25,1,1
1013.26,0,0
1013.26,1,2
1013.26,1,1
1013.26,1,1
1013.26,2,3
1013.26,3,3
1013.26,2,0
1013.27,0,1
1013.27,1,2
1013.27,2,2
1013.27,2,1
1013.28,1,2
1013.28,3,2
1013.28,2,1
1013.28,0,0
1013.28,1,2
1013.28,3,2
1013.28,1,1
1013.28,0,0
1013.29,0,1
1013.29,1,1
1013.29,2,2
1013.29,3,3
1013.3,2,2
1013.3,1,1
1013.3,1,1
1013.3,2,1
1013.3,1,0
1013.31,0,1
1013.31,1,2
1013.31,2,2
1013.31,2,2
1013.31,2,2
1013.31,1,1
1013.31,0,1
1013.32,1,1
1013.32,1,1
1013.32,1,2
1013.32,3,5
1013.32,4,3
1013.33,1,1
1013.33,0,0
1013.33,0,0
1013.33,0,1
1013.33,1,1
1013.33,2,3
1013.33,3,1
1013.34,0,0
1013.34,0,1
1013.34,1,2
1013.34,3,3
1013.35,2,2
1013.35,1,2
1013.35,2,2
1013.35,2,2
1013.35,1,1
1013.35,0,1
1013.35,1,1
1013.36,1,1
1013.36,0,0
1013.36,1,2
1013.36,2,2
1013.36,1,1
1013.37,1,1
1013.37,2,2
1013.37,3,3
1013.37,3,2
1013.37,1,0
1013.38,0,0
1013.38,0,2
1013.38,1,1
1013.38,0,1
1013.38,2,2
1013.38,2,2
1013.38,3,3
1013.39,1,2
1013.39,2,1
1013.39,1,1
1013.39,1,0
1013.39,0,1
1013.4,1,1
1013.4,2,4
1013.4,2,1
1013.4,0,1
1013.4,1,2
1013.4,2,3
1013.4,1,1
1013.41,0,1
1013.41,1,1
1013.41,2,2
1013.41,3,2
1013.42,2,1
1013.42,1,1
1013.42,1,1
1013.42,1,0
1013.42,0,1
1013.42,1,2
1013.42,4,5
1013.43,5,2
1013.43,0,0
1013.43,0,0
1013.43,0,0
1013.43,0,1
1013.44,1,1
1013.44,1,2
1013.44,2,2
1013.44,1,0
1013.44,0,0
1013.44,1,2
1013.44,4,5
1013.45,6,4
1013.45,3,0
1013.45,0,0
1013.45,0,0
1013.45,0,0
1013.46,1,2
1013.46,2,2
1013.46,2,1
1013.46,1,1
1013.46,1,1
1013.47,1,1
1013.47,2,2
1013.47,2,2
1013.47,2,3
1013.47,3,3
1013.47,2,1
1013.47,1,1
1013.48,0,0
1013.48,1,1
1013.48,0,1
1013.48,1,1
1013.49,1,1
1013.49,1,2
1013.49,3,4
1013.49,3,2
1013.49,0,0
1013.49,1,1
1013.49,1,0
1013.5,1,1
1013.5,1,2
1013.5,1,1
1013.5,0,0
1013.5,2,3
1013.51,3,3
1013.51,3,2
1013.51,1,1
1013.51,1,1
1013.51,1,0
1013.51,1,2
1013.51,3,2
1013.52,1,1
1013.52,1,0
1013.52,0,0
1013.52,0,0
1013.52,3,5
1013.53,5,4
1013.53,1,0
1013.53,0,0
1013.53,0,1
1013.53,1,1
1013.53,2,2
1013.53,2,2
1013.54,2,2
1013.54,2,2
1013.54,2,2
1013.54,1,0
1013.55,0,0
1013.55,2,2
1013.55,3,3
1013.55,3,2
1013.55,2,1
1013.56,1,0
1013.56,1,0
1013.56,1,2
1013.56,2,2
1013.56,1,2
1013.56,2,2
1013.56,3,2
1013.57,1,0
1013.57,0,0
1013.57,0,1
1013.57,3,3
1013.57,3,3
1013.58,2,2
1013.58,1,1
1013.58,1,1
1013.58,1,1
1013.58,1,2
1013.58,2,2
1013.58,2,2
1013.59,2,2
1013.59,2,2
1013.59,1,1
1013.59,0,0
1013.59,1,1
1013.6,1,1
1013.6,1,1
1013.6,1,0
1013.6,1,2
1013.6,2,2
1013.6,2,2
1013.6,1,1
1013.61,2,3
1013.61,3,2
1013.61,1,0
1013.61,0,0
1013.62,0,1
1013.62,2,2
1013.62,1,0
1013.62,0,1
1013.62,2,2
1013.62,3,5
1013.62,5,3
1013.63,1,0
1013.63,0,0
1013.63,0,0
1013.63,1,1
1013.63,1,2
1013.64,2,3
1013.64,3,2
1013.64,2,1
1013.64,1,0
1013.64,0,1
1013.65,1,1
1013.65,1,1
1013.65,0,0
1013.65,1,2
1013.65,3,4
1013.65,4,3
1013.65,2,2
1013.66,0,0
1013.66,0,0
1013.66,1,1
1013.66,1,2
1013.66,2,1
1013.67,1,2
1013.67,2,2
1013.67,2,2
1013.67,3,2
1013.67,1,0
1013.67,0,1
1013.67,1,1
1013.68,1,2
1013.68,2,2
1013.68,2,2
1013.68,2,2
1013.69,2,1
1013.69,1,2
1013.69,2,2
1013.69,1,1
1013.69,2,2
1013.69,2,2
1013.69,1,1
1013.7,1,1
1013.7,1,1
1013.7,2,2
1013.7,2,2
1013.7,2,1
1013.71,1,1
1013.71,2,2
1013.71,2,2
1013.71,1,1
1013.71,1,2
1013.71,2,2
1013.71,2,3
1013.72,3,3
1013.72,3,0
1013.72,0,0
1013.72,0,1
1013.72,1,1
1013.73,1,0
1013.73,1,1
1013.73,2,2
1013.73,2,2
1013.73,1,1
1013.74,2,2
1013.74,2,1
1013.74,1,1
1013.74,1,1
1013.74,1,2
1013.74,2,2
1013.74,2,2
1013.75,2,2
1013.75,2,2
1013.75,2,2
1013.75,1,0
1013.76,0,1
1013.76,2,2
1013.76,1,2
1013.76,2,2
1013.76,1,0
1013.76,0,0
1013.76,1,1
1013.77,2,2
1013.77,2,2
1013.77,2,2
1013.77,2,2
1013.77,2,1
1013.78,1,1
1013.78,1,1
1013.78,1,1
1013.78,1,0
1013.78,2,1
1013.78,1,1
1013.78,1,2
1013.79,1,0
1013.79,1,1
1013.79,2,2
1013.79,1,1
1013.79,1,1
1013.8,2,3
1013.8,3,2
1013.8,1,1
1013.8,1,1
1013.81,1,1
1013.81,1,1
1013.81,1,1
1013.81,1,1
1013.81,2,1
1013.81,1,0
1013.81,0,0
1013.82,0,0
1013.82,1,3
1013.82,4,4
1013.82,4,2
1013.82,0,0
1013.83,0,1
1013.83,2,2
1013.83,2,2
1013.83,2,2
1013.83,1,1
1013.83,1,1
1013.83,2,2
1013.84,1,1
1013.84,1,2
1013.84,2,1
1013.84,1,1
1013.84,2,2
1013.85,3,3
1013.85,2,2
1013.85,2,2
1013.85,2,1
1013.85,1,0
1013.85,0,0
1013.85,0,1
1013.86,1,1
1013.86,2,2
1013.86,1,1
1013.86,1,1
1013.86,1,1
1013.87,1,2
1013.87,3,3
1013.87,3,2
1013.87,1,1
1013.87,1,0
1013.87,0,1
1013.87,2,2
1013.88,2,1
1013.88,1,1
1013.88,1,1
1013.88,1,1
1013.89,1,0
1013.89,1,1
1013.89,2,2
1013.89,3,1
1013.89,1,1
1013.9,1,1
1013.9,1,1
1013.9,1,0
1013.9,2,1
1013.9,1,1
1013.9,1,2
1013.9,2,2
1013.91,2,2
1013.91,2,2
1013.91,2,2
1013.91,2,0
1013.91,0,0
1013.92,1,3
1013.92,5,6
1013.92,4,2
1013.92,0,-1
1013.92,0,0
1013.92,0,0
1013.92,0,1
1013.93,1,3
1013.93,4,4
1013.93,3,2
1013.93,1,0
1013.93,0,0
1013.94,0,0
1013.94,0,1
1013.94,1,2
1013.94,2,2
1013.94,1,1
1013.94,2,2
1013.94,2,1
1013.95,1,1
1013.95,2,2
1013.95,2,2
1013.95,2,2
1013.96,2,1
1013.96,1,1
1013.96,1,1
1013.96,1,1
1013.96,1,1
1013.96,1,0
1013.96,0,1
1013.97,1,1
1013.97,2,2
1013.97,2,2
1013.97,2,2
1013.97,2,2
1013.98,2,1
1013.98,1,1
1013.98,2,2
1013.98,2,2
1013.98,1,1
1013.99,1,1
1013.99,0,0
1013.99,2,2
1013.99,2,3
1013.99,3,3
1013.99,3,1
1013.99,0,0
1014,0,1
1014,2,2
1014,2,1
1014,1,1
1014.01,1,2
1014.01,2,2
1014.01,2,2
1014.01,2,2
1014.01,2,1
1014.01,1,1
1014.01,1,2
1014.01,3,4
1014.02,4,2
1014.02,0,0
1014.02,0,0
1014.02,0,0
1014.03,0,0
1014.03,1,1
1014.03,2,3
1014.03,4,3
1014.03,3,2
1014.03,2,2
1014.03,2,2
1014.04,1,1
1014.04,1,1
1014.04,1,1
1014.04,1,1
1014.04,1,1
1014.05,2,2
1014.05,2,1
1014.05,1,0
1014.05,0,0
1014.05,0,0
1014.05,2,3
1014.05,3,2
1014.06,1,1
1014.06,2,3
1014.06,3,1
1014.06,1,0
1014.06,1,1
1014.07,2,2
1014.07,2,2
1014.07,2,1
1014.07,0,0
1014.08,0,2
1014.08,2,2
1014.08,2,3
1014.08,2,2
1014.08,1,2
1014.08,2,3
1014.08,1,1
1014.09,1,1
1014.09,1,1
1014.09,1,1
1014.09,1,0
1014.09,0,1
1014.1,2,2
1014.1,1,2
1014.1,2,2
1014.1,2,2
1014.1,1,1
1014.1,1,1
1014.1,2,2
1014.11,2,2
1014.11,2,2
1014.11,2,2
1014.11,1,1
1014.11,1,2
1014.12,4,4
1014.12,3,1
1014.12,0,0
1014.12,0,0
1014.12,0,1
1014.12,1,1
1014.12,1,2
1014.13,2,3
1014.13,3,1
1014.13,0,0
1014.13,0,2
1014.13,3,3
1014.14,3,3
1014.14,2,2
1014.14,1,1
1014.14,1,1
1014.15,1,1
1014.15,2,2
1014.15,2,2
1014.15,2,2
1014.15,2,1
1014.15,1,1
1014.15,1,1
1014.16,1,1
1014.16,0,1
1014.16,1,2
1014.16,2,2
1014.16,2,2
1014.17,1,0
1014.17,0,1
1014.17,3,4
1014.17,3,3
1014.17,2,1
1014.17,0,0
1014.17,0,0
1014.18,0,1
1014.18,2,2
1014.18,2,1
1014.18,1,2
1014.18,3,3
1014.19,2,2
1014.19,1,0
1014.19,0,0
1014.19,1,1
1014.19,2,2
1014.19,2,3
1014.19,2,1
1014.2,0,1
1014.2,1,1
1014.2,2,2
1014.2,3,2
1014.2,1,0
1014.21,0,1
1014.21,1,1
1014.21,1,2
1014.21,3,5
1014.21,5,4
1014.21,1,0
1014.21,0,0
1014.22,0,0
1014.22,0,1
1014.22,2,2
1014.22,1,1
1014.23,1,1
1014.23,2,2
1014.23,3,3
1014.23,2,1
1014.23,1,1
1014.24,1,0
1014.24,0,1
1014.24,2,1
1014.24,1,1
1014.24,2,1
1014.24,1,2
1014.24,2,2
1014.25,2,2
1014.25,2,2
1014.25,2,2
1014.25,1,1
1014.25,1,1
1014.26,1,0
1014.26,1,1
1014.26,1,1
1014.26,2,2
1014.26,2,3
1014.26,2,1
1014.26,0,1
1014.27,1,1
1014.27,2,2
1014.27,2,2
1014.27,2,2
1014.28,2,1
1014.28,1,1
1014.28,1,1
1014.28,2,2
1014.28,1,1
1014.28,0,0
1014.28,1,1
1014.29,1,1
1014.29,2,2
1014.29,2,2
1014.29,2,2
1014.29,2,2
1014.3,2,2
1014.3,1,1
1014.3,1,0
1014.3,0,0
1014.3,0,0
1014.3,1,3
1014.3,5,6
1014.31,4,2
1014.31,0,0
1014.31,0,1
1014.31,1,2
1014.31,2,3
1014.32,2,1
1014.32,1,1
1014.32,0,0
1014.32,1,1
1014.32,1,1
1014.33,1,1
1014.33,0,1
1014.33,2,2
1014.33,2,2
1014.33,3,2
1014.33,2,2
1014.33,1,1
1014.34,1,1
1014.34,1,1
1014.34,1,1
1014.34,1,1
1014.35,1,2
1014.35,2,2
1014.35,2,1
1014.35,1,1
1014.35,1,1
1014.35,2,1
1014.35,1,2
1014.36,2,2
1014.36,2,2
1014.36,2,1
1014.36,1,1
1014.36,0,1
1014.37,2,3
1014.37,4,2
1014.37,1,1
1014.37,1,1
1014.37,1,1
1014.37,0,0
1014.37,1,1
1014.38,2,2
1014.38,2,2
1014.38,2,1
1014.38,0,0
1014.38,1,2
1014.39,2,2
1014.39,2,1
1014.39,2,2
1014.39,2,3
1014.39,2,2
1014.39,2,1
1014.39,1,1
1014.4,1,0
1014.4,0,0
1014.4,0,1
1014.4,1,2
1014.4,3,3
1014.41,2,2
1014.41,3,4
1014.41,6,4
1014.41,2,0
1014.42,1,0
1014.42,0,0
1014.42,0,0
1014.42,2,1
1014.42,1,1
1014.42,1,1
1014.42,1,1
1014.43,1,0
1014.43,1,2
1014.43,2,2
1014.43,1,1
1014.43,1,1
1014.44,2,3
1014.44,3,2
1014.44,1,0
1014.44,1,1
1014.44,2,2
1014.44,3,1
1014.44,1,0
1014.45,1,1
1014.45,1,1
1014.45,2,3
1014.45,3,2
1014.45,1,0
1014.46,0,2
1014.46,2,1
1014.46,1,1
1014.46,0,1
1014.46,2,2
1014.46,1,1
1014.46,1,1
1014.47,2,3
1014.47,3,2
1014.47,1,1
1014.47,1,1
1014.47,0,0
1014.48,0,1
1014.48,2,3
1014.48,3,2
1014.48,2,1
1014.49,1,1
1014.49,2,2
1014.49,2,2
1014.49,2,2
1014.49,2,1
1014.49,1,1
1014.49,1,1
1014.5,2,2
1014.5,2,2
1014.5,2,2
1014.5,2,2
1014.5,1,1
1014.51,1,0
1014.51,0,0
1014.51,1,1
1014.51,3,5
1014.51,5,3
1014.51,0,0
1014.51,0,1
1014.52,1,1
1014.52,1,0
1014.52,0,1
1014.52,1,1
1014.52,1,1
1014.53,1,1
1014.53,2,2
1014.53,2,2
1014.53,2,2
1014.53,2,2
1014.53,2,2
1014.53,2,1
1014.54,1,1
1014.54,1,2
1014.54,3,2
1014.54,1,0
1014.55,0,0
1014.55,1,2
1014.55,2,2
1014.55,2,2
1014.55,2,1
1014.55,0,0
1014.55,1,2
1014.56,2,2
1014.56,2,1
1014.56,1,1
1014.56,2,3
1014.56,3,1
1014.57,0,0
1014.57,0,1
1014.57,1,2
1014.57,2,3
1014.57,4,3
1014.58,3,3
1014.58,1,0
1014.58,0,0
1014.58,0,0
1014.58,0,0
1014.58,0,2
1014.58,3,2
1014.59,3,3
1014.59,2,2
1014.59,2,2
1014.59,2,2
1014.59,1,1
1014.6,1,1
1014.6,1,1
1014.6,0,1
1014.6,1,1
1014.6,2,3
1014.6,2,0
1014.6,1,1
1014.61,2,2
1014.61,2,4
1014.61,5,2
1014.61,0,0
1014.62,0,0
1014.62,1,1
1014.62,1,1
1014.62,1,0
1014.62,1,1
1014.62,2,2
1014.62,2,2
1014.63,1,1
1014.63,1,1
1014.63,1,1
1014.63,2,2
1014.63,3,3
1014.64,2,1
1014.64,1,1
1014.64,1,1
1014.64,1,0
1014.64,1,1
1014.64,1,2
1014.64,2,2
1014.65,2,2
1014.65,2,2
1014.65,2,1
1014.65,1,1
1014.65,2,2
1014.66,1,1
1014.66,0,0
1014.66,1,1
1014.66,1,1
1014.66,1,1
1014.67,2,2
1014.67,2,2
1014.67,2,2
1014.67,2,2
1014.67,2,2
1014.67,1,1
1014.67,1,0
1014.68,1,1
1014.68,2,2
1014.68,1,1
1014.68,1,1
1014.69,1,2
1014.69,2,3
1014.69,3,2
1014.69,2,2
1014.69,1,1
1014.69,0,0
1014.69,1,1
1014.7,2,1
1014.7,1,0
1014.7,1,1
1014.7,2,2
1014.7,2,2
1014.71,1,1
1014.71,1,1
1014.71,1,1
1014.71,0,0
1014.71,0,0
1014.71,0,0
1014.71,2,4
1014.72,5,4
1014.72,3,2
1014.72,1,1
1014.72,0,0
1014.72,1,1
1014.73,2,2
1014.73,1,1
1014.73,1,1
1014.73,1,1
1014.73,2,2
1014.73,3,2
1014.73,2,2
1014.74,1,1
1014.74,1,1
1014.74,1,2
1014.74,2,2
1014.75,2,2
1014.75,2,2
1014.75,2,1
1014.75,1,0
1014.75,0,1
1014.76,1,2
1014.76,3,4
1014.76,3,1
1014.76,0,0
1014.76,0,1
1014.76,1,2
1014.76,2,1
1014.77,1,1
1014.77,2,3
1014.77,3,3
1014.77,3,2
1014.77,1,0
1014.78,0,0
1014.78,0,0
1014.78,1,1
1014.78,1,2
1014.78,3,3
1014.78,2,2
1014.78,1,0
1014.79,0,1
1014.79,1,1
1014.79,1,0
1014.79,0,2
1014.79,3,2
1014.8,2,3
1014.8,3,3
1014.8,2,2
1014.8,1,1
1014.8,0,0
1014.8,0,1
1014.8,1,1
1014.81,1,1
1014.81,1,2
1014.81,3,3
1014.81,2,2
1014.82,2,1
1014.82,1,0
1014.82,0,0
1014.82,0,3
1014.82,5,3
1014.82,1,0
1014.82,0,1
1014.83,1,2
1014.83,2,2
1014.83,2,2
1014.83,2,1
1014.83,1,1
1014.84,1,1
1014.84,1,2
1014.84,3,2
1014.84,2,1
1014.84,0,0
1014.85,0,0
1014.85,1,1
1014.85,2,3
1014.85,3,3
1014.85,2,1
1014.85,1,0
1014.85,0,0
1014.86,1,1
1014.86,1,2
1014.86,2,1
1014.86,1,1
1014.86,1,2
1014.87,2,3
1014.87,3,2
1014.87,2,1
1014.87,1,0
1014.87,1,1
1014.87,2,1
1014.87,1,1
1014.88,0,1
1014.88,1,0
1014.88,1,1
1014.88,1,2
1014.89,2,2
1014.89,2,2
1014.89,2,1
1014.89,1,1
1014.89,1,1
1014.89,2,3
1014.89,3,2
1014.9,2,1
1014.9,0,0
1014.9,1,2
1014.9,2,1
1014.9,0,0
1014.91,1,2
1014.91,2,2
1014.91,2,1
1014.91,1,0
1014.91,0,1
1014.92,2,2
1014.92,4,5
1014.92,5,3
1014.92,1,0
1014.92,0,0
1014.92,1,1
1014.92,2,2
1014.93,2,3
1014.93,3,1
1014.93,0,0
1014.93,1,1
1014.93,1,1
1014.94,1,1
1014.94,1,1
1014.94,1,1
1014.94,1,2
1014.94,2,3
1014.94,3,2
1014.94,1,0
1014.95,0,0
1014.95,2,2
1014.95,2,2
1014.95,2,2
1014.96,2,2
1014.96,2,1
1014.96,1,1
1014.96,1,1
1014.96,2,2
1014.96,2,2
1014.96,2,2
1014.97,2,1
1014.97,1,1
1014.97,1,1
1014.97,0,1
1014.97,1,2
1014.98,2,2
1014.98,2,2
1014.98,1,1
1014.98,1,1
1014.98,1,1
1014.98,1,1
1014.98,0,1
1014.99,1,1
1014.99,1,2
1014.99,2,2
1014.99,1,1
1014.99,1,1
1015,1,0
1015,0,1
1015,1,1
1015,1,1
1015.01,1,2
1015.01,3,3
1015.01,3,1
1015.01,1,1
1015.01,1,1
1015.01,1,1
1015.01,1,1
1015.02,1,0
1015.02,0,0
1015.02,1,3
1015.02,4,3
1015.02,2,1
1015.03,0,0
1015.03,1,2
1015.03,2,2
1015.03,1,2
1015.03,3,2
1015.03,2,2
1015.03,1,0
1015.04,0,0
1015.04,1,1
1015.04,1,1
1015.04,1,1
1015.04,1,1
1015.05,1,2
1015.05,2,2
1015.05,2,3
1015.05,3,2
1015.05,1,1
1015.05,1,1
1015.05,0,0
1015.06,0,1
1015.06,2,2
1015.06,1,1
1015.06,2,2
1015.06,2,2
1015.07,2,2
1015.07,2,2
1015.07,1,1
1015.07,1,1
1015.07,2,3
1015.07,2,2
1015.07,1,0
1015.08,0,1
1015.08,2,3
1015.08,3,2
1015.08,2,1
1015.09,1,1
1015.09,2,2
1015.09,1,1
1015.09,1,0
1015.09,0,0
1015.1,1,1
1015.1,2,2
1015.1,2,2
1015.1,2,2
1015.1,1,2
1015.1,2,2
1015.1,2,2
1015.11,1,2
1015.11,2,2
1015.11,2,1
1015.11,2,2
1015.11,3,2
1015.12,0,0
1015.12,-1,0
1015.12,1,2
1015.12,3,4
1015.12,3,2
1015.12,1,1
1015.12,1,1
1015.13,1,0
1015.13,0,1
1015.13,1,1
1015.13,1,1
1015.13,1,2
1015.14,2,3
1015.14,3,2
1015.14,1,1
1015.14,0,1
1015.14,1,1
1015.14,1,0
1015.14,0,1
1015.15,2,2
1015.15,3,3
1015.15,3,2
1015.15,1,1
1015.16,1,1
1015.16,2,3
1015.16,2,1
1015.16,1,1
1015.16,1,1
1015.16,1,1
1015.16,0,0
1015.17,1,1
1015.17,1,1
1015.17,1,1
1015.17,2,2
1015.17,2,2
1015.18,2,2
1015.18,3,1
1015.18,1,1
1015.18,1,1
1015.18,1,1
1015.19,1,1
1015.19,1,0
1015.19,1,2
1015.19,2,2
1015.19,2,1
1015.19,1,1
1015.19,2,2
1015.2,3,2
1015.2,2,2
1015.2,2,2
1015.2,1,0
1015.2,0,0
1015.21,1,0
1015.21,0,1
1015.21,1,2
1015.21,4,4
1015.21,3,3
1015.21,2,1
1015.21,0,0
1015.22,1,1
1015.22,1,0
1015.22,0,2
1015.22,2,3
1015.23,3,1
1015.23,1,1
1015.23,1,0
1015.23,0,0
1015.23,1,2
1015.23,2,2
1015.23,2,3
1015.24,3,2
1015.24,1,1
1015.24,0,0
1015.24,1,1
1015.24,1,1
1015.25,1,1
1015.25,1,2
1015.25,2,3
1015.25,3,2
1015.25,1,1
1015.26,1,1
1015.26,1,1
1015.26,1,1
1015.26,1,0
1015.26,0,0
1015.26,1,1
1015.26,2,2
1015.27,3,3
1015.27,2,1
1015.27,1,1
1015.27,1,1
1015.28,1,1
1015.28,1,1
1015.28,1,1
1015.28,0,1
1015.28,1,1
1015.28,1,2
1015.28,2,3
1015.29,2,2
1015.29,2,1
1015.29,1,2
1015.29,2,2
1015.29,1,1
1015.3,1,1
1015.3,2,2
1015.3,2,2
1015.3,2,3
1015.3,2,2
1015.3,1,0
1015.3,0,0
1015.31,0,0
1015.31,0,2
1015.31,3,2
1015.31,2,2
1015.31,2,2
1015.32,3,2
1015.32,2,1
1015.32,1,1
1015.32,1,1
1015.32,1,1
1015.32,1,2
1015.32,2,2
1015.33,1,1
1015.33,1,0
1015.33,2,5
1015.33,4,3
1015.33,1,0
1015.34,0,1
1015.34,2,2
1015.34,1,0
1015.34,0,0
1015.35,1,2
1015.35,1,1
1015.35,1,1
1015.35,2,1
1015.35,1,1
1015.35,1,1
1015.35,2,2
1015.36,2,2
1015.36,2,2
1015.36,1,2
1015.36,3,2
1015.36,2,2
1015.37,1,1
1015.37,0,0
1015.37,0,1
1015.37,1,1
1015.37,2,2
1015.37,2,2
1015.37,2,2
1015.38,2,2
1015.38,2,1
1015.38,1,1
1015.38,1,2
1015.38,2,2
1015.39,2,1
1015.39,0,0
1015.39,0,0
1015.39,2,2
1015.39,2,2
1015.39,2,1
1015.39,1,1
1015.4,2,2
1015.4,3,3
1015.4,2,1
1015.4,0,0
1015.4,1,1
1015.41,1,2
1015.41,2,2
1015.41,1,1
1015.41,1,2
1015.41,2,2
1015.41,2,1
1015.41,1,2
1015.42,2,2
1015.42,2,2
1015.42,2,2
1015.42,1,1
1015.43,1,0
1015.43,0,1
1015.43,2,3
1015.43,4,5
1015.43,4,3
1015.44,1,0
1015.44,-1,0
1015.44,0,0
1015.44,1,1
1015.44,2,1
1015.44,1,1
1015.44,2,2
1015.45,2,2
1015.45,2,1
1015.45,1,1
1015.45,1,1
1015.45,1,2
1015.46,2,2
1015.46,1,1
1015.46,2,2
1015.46,2,2
1015.46,2,2
1015.46,2,1
1015.46,1,1
1015.47,0,1
1015.47,2,2
1015.47,2,1
1015.47,1,1
1015.48,1,2
1015.48,3,2
1015.48,1,1
1015.48,1,1
1015.48,0,0
1015.48,1,1
1015.48,1,2
1015.49,2,2
1015.49,2,2
1015.49,1,1
1015.49,2,2
1015.49,2,3
1015.5,2,2
1015.5,1,0
1015.5,0,1
1015.5,1,1
1015.5,1,2
1015.5,2,2
1015.5,2,1
1015.51,1,1
1015.51,1,1
1015.51,1,0
1015.51,1,2
1015.51,3,2
1015.52,2,3
1015.52,4,3
1015.52,3,2
1015.52,1,0
1015.52,0,2
1015.53,2,1
1015.53,1,0
1015.53,0,0
1015.53,1,1
1015.53,1,1
1015.53,1,1
1015.53,1,1
1015.54,1,1
1015.54,1,2
1015.54,2,2
1015.54,1,0
1015.55,0,1
1015.55,2,4
1015.55,5,5
1015.55,4,1
1015.55,0,0
1015.55,0,0
1015.55,1,2
1015.56,3,2
1015.56,1,0
1015.56,1,1
1015.56,2,2
1015.56,2,2
1015.57,2,2
1015.57,1,1
1015.57,1,1
1015.57,1,1
1015.57,1,1
1015.57,1,1
1015.57,2,2
1015.58,2,2
1015.58,2,2
1015.58,2,2
1015.58,2,1
1015.58,1,1
1015.59,1,2
1015.59,2,2
1015.59,2,2
1015.59,2,2
1015.59,2,2
1015.59,1,2
1015.59,2,2
1015.6,2,1
1015.6,1,0
1015.6,0,1
1015.6,1,1
1015.6,0,1
1015.61,1,1
1015.61,2,2
1015.61,2,2
1015.61,2,2
1015.62,2,2
1015.62,1,2
1015.62,2,2
1015.62,2,2
1015.62,2,1
1015.62,1,2
1015.62,2,2
1015.63,2,2
1015.63,2,1
1015.63,1,0
1015.63,0,1
1015.63,2,4
1015.64,5,3
1015.64,1,0
1015.64,0,0
1015.64,0,0
1015.64,1,3
1015.64,4,4
1015.64,4,3
1015.65,1,0
1015.65,0,0
1015.65,0,-1
1015.65,0,0
1015.65,2,3
1015.66,3,3
1015.66,3,3
1015.66,1,1
1015.66,0,1
1015.66,1,2
1015.66,2,2
1015.66,2,2
1015.67,2,2
1015.67,2,2
1015.67,1,1
1015.67,1,1
1015.67,1,1
1015.68,1,1
1015.68,0,0
1015.68,1,1
1015.68,2,2
1015.69,2,2
1015.69,2,2
1015.69,2,2
1015.69,1,1
1015.69,1,1
1015.69,0,1
1015.69,1,1
1015.7,1,2
1015.7,2,2
1015.7,2,1
1015.7,1,1
1015.7,2,2
1015.71,2,2
1015.71,2,1
1015.71,1,0
1015.71,0,0
1015.71,2,3
1015.71,3,3
1015.71,2,2
1015.72,1,0
1015.72,1,3
