Program Time [s],data 0,data 1
1020.78,1,1
1020.78,1,1
1020.78,1,1
1020.78,1,2
1020.78,2,2
1020.79,2,1
1020.79,1,1
1020.79,1,1
1020.79,2,3
1020.8,4,2
1020.8,1,0
1020.8,0,1
1020.8,1,1
1020.8,2,2
1020.8,2,2
1020.8,2,2
1020.81,1,1
1020.81,1,0
1020.81,1,1
1020.81,1,1
1020.81,1,0
1020.82,1,1
1020.82,1,1
1020.82,1,1
1020.82,2,2
1020.82,2,3
1020.83,2,1
1020.83,0,1
1020.83,1,1
1020.83,1,0
1020.83,0,2
1020.83,2,2
1020.83,3,4
1020.84,3,1
1020.84,0,0
1020.84,1,1
1020.84,1,2
1020.85,2,2
1020.85,3,2
1020.85,2,2
1020.85,1,1
1020.85,1,0
1020.85,0,0
1020.85,0,0
1020.85,2,3
1020.86,4,4
1020.86,3,1
1020.86,0,0
1020.86,1,1
1020.87,1,1
1020.87,1,1
1020.87,1,1
1020.87,2,2
1020.87,2,2
1020.87,2,2
1020.87,2,2
1020.88,2,1
1020.88,1,1
1020.88,2,2
1020.88,1,0
1020.88,1,1
1020.89,1,0
1020.89,0,1
1020.89,2,2
1020.89,2,2
1020.89,2,2
1020.89,1,1
1020.89,0,2
1020.9,3,4
1020.9,2,1
1020.9,0,0
1020.9,1,1
1020.9,1,2
1020.91,2,3
1020.91,3,2
1020.91,1,1
1020.91,0,0
1020.92,1,1
1020.92,2,2
1020.92,1,1
1020.92,1,1
1020.92,1,1
1020.92,1,1
1020.92,1,1
1020.93,0,1
1020.93,1,1
1020.93,1,1
1020.93,1,1
1020.93,1,1
1020.94,1,1
1020.94,1,3
1020.94,3,2
1020.94,1,1
1020.94,2,2
1020.94,2,2
1020.94,2,1
1020.95,1,1
1020.95,2,2
1020.95,1,1
1020.95,1,1
1020.95,1,1
1020.96,1,2
1020.96,3,5
1020.96,4,2
1020.96,1,1
1020.96,2,1
1020.96,1,0
1020.96,0,0
1020.97,0,1
1020.97,1,2
1020.97,2,2
1020.97,2,2
1020.97,1,1
1020.98,1,1
1020.98,1,2
1020.98,2,2
1020.98,2,2
1020.99,2,2
1020.99,2,2
1020.99,2,1
1020.99,1,0
1020.99,2,2
1020.99,1,1
1020.99,1,1
1021,0,1
1021,1,2
1021,2,2
1021,2,2
1021,2,2
1021.01,1,1
1021.01,1,1
1021.01,0,1
1021.01,1,2
1021.01,2,3
1021.01,1,1
1021.01,1,1
1021.02,1,1
1021.02,1,1
1021.02,1,1
1021.02,2,2
1021.02,2,3
1021.03,3,2
1021.03,1,1
1021.03,0,0
1021.03,1,2
1021.03,1,1
1021.03,0,0
1021.03,0,0
1021.04,1,2
1021.04,3,3
1021.04,3,2
1021.04,2,1
1021.05,1,0
1021.05,0,0
1021.05,1,1
1021.05,1,2
1021.05,2,2
1021.05,3,3
1021.05,2,2
1021.05,1,0
1021.06,0,0
1021.06,0,1
1021.06,2,5
1021.06,5,3
1021.07,1,0
1021.07,0,0
1021.07,1,1
1021.07,2,2
1021.07,2,2
1021.08,2,2
1021.08,2,2
1021.08,2,2
1021.08,2,1
1021.08,1,1
1021.08,1,1
1021.08,1,1
1021.09,1,1
1021.09,1,2
1021.09,2,2
1021.09,1,1
1021.09,0,0
1021.1,0,1
1021.1,2,2
1021.1,2,2
1021.1,2,1
1021.1,1,1
1021.1,2,3
1021.1,4,2
1021.11,2,1
1021.11,1,0
1021.11,0,1
1021.11,1,1
1021.12,1,1
1021.12,2,2
1021.12,3,3
1021.12,1,1
1021.12,0,1
1021.12,2,2
1021.12,2,2
1021.13,2,1
1021.13,1,1
1021.13,1,1
1021.13,1,1
1021.13,0,1
1021.14,1,1
1021.14,1,2
1021.14,2,2
1021.14,2,2
1021.14,2,2
1021.14,2,2
1021.14,1,1
1021.15,1,1
1021.15,1,2
1021.15,2,1
1021.15,1,1
1021.15,1,1
1021.16,2,3
1021.16,4,2
1021.16,1,0
1021.16,0,1
1021.16,1,1
1021.17,1,0
1021.17,2,1
1021.17,1,1
1021.17,1,1
1021.17,1,1
1021.17,0,1
1021.17,0,0
1021.18,0,1
1021.18,2,4
1021.18,4,5
1021.18,4,2
1021.19,0,0
1021.19,0,1
1021.19,2,2
1021.19,2,1
1021.19,1,0
1021.19,1,1
1021.19,2,2
1021.2,2,2
1021.2,1,1
1021.2,1,1
1021.2,1,1
1021.2,2,2
1021.21,2,2
1021.21,2,2
1021.21,2,2
1021.21,2,1
1021.21,1,0
1021.21,1,1
1021.21,1,1
1021.22,1,1
1021.22,2,3
1021.22,2,2
1021.22,2,2
1021.22,1,1
1021.23,1,1
1021.23,1,1
1021.23,1,1
1021.23,0,1
1021.23,1,1
1021.23,1,1
1021.23,1,1
1021.24,1,2
1021.24,2,2
1021.24,2,2
1021.24,3,2
1021.24,2,2
1021.25,1,1
1021.25,1,0
1021.25,0,0
1021.25,1,1
1021.26,2,2
1021.26,2,2
1021.26,2,1
1021.26,1,1
1021.26,2,4
1021.26,3,2
1021.26,1,1
1021.27,1,1
1021.27,1,1
1021.27,1,0
1021.27,0,1
1021.27,2,2
1021.28,2,2
1021.28,2,2
1021.28,2,1
1021.28,1,1
1021.28,1,1
1021.28,1,1
1021.28,1,2
1021.29,3,3
1021.29,2,1
1021.29,0,1
1021.29,1,1
1021.29,2,4
1021.3,4,2
1021.3,0,0
1021.3,0,0
1021.3,1,2
1021.3,2,2
1021.3,2,2
1021.3,2,2
1021.31,2,2
1021.31,2,1
1021.31,0,0
1021.31,1,2
1021.32,2,1
1021.32,0,0
1021.32,0,2
1021.32,2,3
1021.32,4,3
1021.33,2,1
1021.33,1,1
1021.33,1,1
1021.33,0,0
1021.33,1,2
1021.33,2,2
1021.33,2,1
1021.34,2,2
1021.34,2,2
1021.34,1,0
1021.34,0,1
1021.34,2,2
1021.35,2,2
1021.35,2,2
1021.35,1,1
1021.35,0,0
1021.35,0,1
1021.35,2,2
1021.35,3,3
1021.36,2,2
1021.36,2,1
1021.36,1,1
1021.36,1,1
1021.36,2,2
1021.37,2,2
1021.37,2,2
1021.37,2,2
1021.37,1,1
1021.37,1,1
1021.37,1,1
1021.37,1,0
1021.38,1,1
1021.38,1,1
1021.38,1,1
1021.38,2,2
1021.39,2,2
1021.39,1,2
1021.39,2,2
1021.39,2,2
1021.39,2,2
1021.39,1,1
1021.39,0,1
1021.4,1,1
1021.4,2,2
1021.4,2,2
1021.4,2,2
1021.4,1,1
1021.41,1,0
1021.41,1,2
1021.41,2,1
1021.41,1,0
1021.41,0,0
1021.42,0,1
1021.42,3,5
1021.42,5,2
1021.42,1,0
1021.42,1,1
1021.42,1,0
1021.42,1,2
1021.43,2,2
1021.43,1,1
1021.43,1,1
1021.43,1,1
1021.43,2,1
1021.44,0,1
1021.44,2,2
1021.44,1,0
1021.44,0,1
1021.44,2,2
1021.44,2,3
1021.44,2,1
1021.45,1,1
1021.45,0,1
1021.45,1,1
1021.45,1,2
1021.46,2,3
1021.46,3,2
1021.46,0,0
1021.46,1,1
1021.46,2,2
1021.46,2,2
1021.46,2,2
1021.47,2,1
1021.47,1,1
1021.47,1,1
1021.47,0,1
1021.47,1,1
1021.48,1,1
1021.48,2,2
1021.48,2,2
1021.48,2,2
1021.48,2,2
1021.48,2,2
1021.48,1,1
1021.49,0,0
1021.49,0,0
1021.49,1,1
1021.49,2,2
1021.49,2,2
1021.5,2,2
1021.5,2,2
1021.5,2,2
1021.5,1,1
1021.51,1,1
1021.51,1,1
1021.51,1,1
1021.51,1,1
1021.51,1,1
1021.51,1,1
1021.51,0,1
1021.52,1,0
1021.52,1,0
1021.52,0,2
1021.52,4,4
1021.52,4,3
1021.53,0,0
1021.53,0,1
1021.53,1,0
1021.53,0,1
1021.53,2,2
1021.53,2,2
1021.53,2,1
1021.54,1,1
1021.54,2,3
1021.54,3,2
1021.54,1,1
1021.54,0,1
1021.55,2,2
1021.55,1,1
1021.55,1,2
1021.55,2,2
1021.55,2,2
1021.55,1,1
1021.55,1,2
1021.56,2,2
1021.56,2,1
1021.56,1,2
1021.56,3,4
1021.56,4,1
1021.57,0,1
1021.57,1,1
1021.57,1,0
1021.57,0,0
1021.57,1,2
1021.57,3,1
1021.57,1,1
1021.58,1,1
1021.58,2,2
1021.58,2,2
1021.58,2,2
1021.59,2,2
1021.59,2,2
1021.59,2,1
1021.59,1,1
1021.59,1,2
1021.6,2,2
1021.6,2,2
1021.6,1,1
1021.6,1,1
1021.6,2,3
1021.6,3,1
1021.6,1,0
1021.61,1,2
1021.61,2,2
1021.61,2,1
1021.61,1,1
1021.61,1,1
1021.62,0,0
1021.62,0,1
1021.62,2,3
1021.62,4,5
1021.62,4,2
1021.62,1,1
1021.62,1,0
1021.63,0,0
1021.63,0,0
1021.63,1,2
1021.63,3,2
1021.63,2,2
1021.64,1,2
1021.64,2,2
1021.64,3,2
1021.64,1,1
1021.64,0,1
1021.64,1,1
1021.64,1,1
1021.65,2,2
1021.65,1,1
1021.65,2,1
1021.65,0,0
1021.66,0,1
1021.66,1,2
1021.66,2,2
1021.66,3,3
1021.66,2,1
1021.66,1,1
1021.66,1,1
1021.67,1,1
1021.67,1,1
1021.67,1,1
1021.67,0,1
1021.67,1,1
1021.68,1,1
1021.68,2,2
1021.68,2,2
1021.68,2,2
1021.68,3,1
1021.69,1,1
1021.69,0,1
1021.69,1,1
1021.69,1,1
1021.69,1,1
1021.69,1,1
1021.69,1,1
1021.7,1,2
1021.7,2,3
1021.7,3,2
1021.7,2,1
1021.71,1,0
1021.71,0,0
1021.71,1,1
1021.71,2,2
1021.71,2,2
1021.71,1,1
1021.71,1,1
1021.71,1,2
1021.72,2,2
1021.72,2,2
1021.72,2,2
1021.72,1,1
1021.73,1,3
1021.73,3,1
1021.73,0,1
1021.73,1,1
1021.73,1,1
1021.73,1,2
1021.73,3,4
1021.74,3,2
1021.74,0,0
1021.74,1,1
1021.74,1,0
1021.74,0,0
1021.75,0,0
1021.75,2,3
1021.75,2,2
1021.75,2,2
1021.75,2,2
1021.76,1,1
1021.76,1,1
1021.76,1,2
1021.76,2,1
1021.76,1,1
1021.76,2,3
1021.76,4,2
1021.77,2,2
1021.77,1,0
1021.77,0,0
1021.77,2,2
1021.78,1,1
1021.78,1,1
1021.78,1,0
1021.78,0,1
1021.78,2,2
1021.78,2,2
1021.78,1,1
1021.79,2,2
1021.79,2,2
1021.79,1,1
1021.79,1,2
1021.79,2,2
1021.8,2,2
1021.8,2,2
1021.8,2,2
1021.8,2,1
1021.8,1,0
1021.8,0,1
1021.8,1,1
1021.81,1,1
1021.81,1,2
1021.81,2,2
1021.81,2,2
1021.81,2,2
1021.82,2,2
1021.82,2,1
1021.82,1,0
1021.82,1,1
1021.82,1,2
1021.82,2,2
1021.82,2,1
1021.83,1,0
1021.83,0,1
1021.83,3,6
1021.83,5,2
1021.83,0,0
1021.84,0,0
1021.84,0,1
1021.84,1,0
1021.84,1,1
1021.85,1,1
1021.85,2,2
1021.85,2,2
1021.85,2,2
1021.85,2,1
1021.85,1,1
1021.85,1,1
1021.86,1,2
1021.86,2,2
1021.86,2,2
1021.86,2,2
1021.86,2,2
1021.87,1,1
1021.87,1,1
1021.87,1,1
1021.87,2,1
1021.87,0,0
1021.87,1,1
1021.87,1,2
1021.88,2,2
1021.88,2,2
1021.88,2,2
1021.88,1,1
1021.88,1,1
1021.89,1,1
1021.89,2,3
1021.89,2,2
1021.89,2,2
1021.89,2,1
1021.89,1,2
1021.89,2,3
1021.9,2,2
1021.9,0,0
1021.9,0,1
1021.9,2,2
1021.9,1,1
1021.91,1,2
1021.91,3,2
1021.91,1,2
1021.91,2,2
1021.91,2,2
1021.91,1,1
1021.91,1,1
1021.92,1,1
1021.92,0,1
1021.92,1,1
1021.92,1,2
1021.93,2,2
1021.93,2,2
1021.93,2,2
1021.93,2,2
1021.93,1,1
1021.94,0,0
1021.94,0,0
1021.94,1,3
1021.94,3,5
1021.94,4,3
1021.94,1,0
1021.94,0,0
1021.95,1,1
1021.95,1,1
1021.95,0,1
1021.95,2,2
1021.95,2,2
1021.96,1,1
1021.96,1,1
1021.96,1,2
1021.96,2,1
1021.96,1,1
1021.96,2,2
1021.96,3,3
1021.97,2,2
1021.97,1,1
1021.97,1,0
1021.97,0,1
1021.98,1,1
1021.98,2,2
1021.98,2,2
1021.98,2,2
1021.98,2,2
1021.98,1,1
1021.98,1,2
1021.99,2,2
1021.99,2,1
1021.99,1,0
1021.99,0,0
1021.99,1,1
1022,1,1
1022,1,1
1022,2,2
1022,2,2
1022,2,2
1022,2,2
1022,2,1
1022.01,1,3
1022.01,3,3
1022.01,1,0
1022.01,0,0
1022.01,0,1
1022.02,2,2
1022.02,2,2
1022.02,2,2
1022.02,2,2
1022.02,2,2
1022.03,1,1
1022.03,1,0
1022.03,0,1
1022.03,2,2
1022.03,3,5
1022.03,5,2
1022.03,0,0
1022.04,0,0
1022.04,0,0
1022.04,1,0
1022.04,1,1
1022.05,2,3
1022.05,3,2
1022.05,1,1
1022.05,0,1
1022.05,2,2
1022.05,2,1
1022.05,1,1
1022.06,1,2
1022.06,2,2
1022.06,2,2
1022.06,2,2
1022.06,2,2
1022.07,1,1
1022.07,1,1
1022.07,1,2
1022.07,2,1
1022.07,1,1
1022.07,1,2
1022.07,2,2
1022.08,2,2
1022.08,2,2
1022.08,2,2
1022.08,1,1
1022.08,1,1
1022.09,2,2
1022.09,2,2
1022.09,1,1
1022.09,1,1
1022.09,2,2
1022.09,2,2
1022.1,2,2
1022.1,2,2
1022.1,1,1
1022.1,1,1
1022.1,0,1
1022.1,1,1
1022.11,2,2
1022.11,3,2
1022.11,1,1
1022.11,1,1
1022.12,1,1
1022.12,1,1
1022.12,1,1
1022.12,0,1
1022.12,1,2
1022.12,2,2
1022.12,2,3
1022.13,1,1
1022.13,1,1
1022.13,1,1
1022.13,1,2
1022.13,2,1
1022.14,0,0
1022.14,0,1
1022.14,1,3
1022.14,3,3
1022.14,2,1
1022.14,0,0
1022.14,0,1
1022.15,1,1
1022.15,1,2
1022.15,2,2
1022.15,2,2
1022.15,2,2
1022.16,2,1
1022.16,1,1
1022.16,2,2
1022.16,3,2
1022.16,2,2
1022.16,1,0
1022.16,0,0
1022.17,0,1
1022.17,2,3
1022.17,3,2
1022.17,1,1
1022.18,1,2
1022.18,2,2
1022.18,2,2
1022.18,2,2
1022.18,2,1
1022.19,1,1
1022.19,1,1
1022.19,1,1
1022.19,1,0
1022.19,1,1
1022.19,1,1
1022.19,2,2
1022.2,2,1
1022.2,1,2
1022.2,2,3
1022.2,2,2
1022.2,1,1
1022.21,1,1
1022.21,1,0
1022.21,0,1
1022.21,1,2
1022.21,3,2
1022.21,1,0
1022.21,1,1
1022.22,2,2
1022.22,2,2
1022.22,2,2
1022.22,1,2
1022.22,2,2
1022.23,2,2
1022.23,1,1
1022.23,2,1
1022.23,0,0
1022.23,1,1
1022.23,1,2
1022.23,2,2
1022.24,2,2
1022.24,2,2
1022.24,2,2
1022.24,2,1
1022.25,0,0
1022.25,0,1
1022.25,3,3
1022.25,3,1
1022.25,0,0
1022.25,0,1
1022.25,2,2
1022.26,3,4
1022.26,2,1
1022.26,0,1
1022.26,1,1
1022.26,0,0
1022.27,1,1
1022.27,1,1
1022.27,1,2
1022.27,2,3
1022.27,3,2
1022.28,1,1
1022.28,1,0
1022.28,0,1
1022.28,1,2
1022.28,2,2
1022.28,2,2
1022.28,2,2
1022.29,1,1
1022.29,1,1
1022.29,2,2
1022.29,2,2
1022.3,1,2
1022.3,2,2
1022.3,2,2
1022.3,1,2
1022.3,1,1
1022.3,0,1
1022.3,2,3
1022.3,4,3
1022.31,2,1
1022.31,1,0
1022.31,0,0
1022.31,1,1
1022.32,2,2
1022.32,2,3
1022.32,2,1
1022.32,1,1
1022.32,1,0
1022.32,1,0
1022.32,0,1
1022.33,1,2
1022.33,2,2
1022.33,2,2
1022.33,2,2
1022.33,2,2
1022.34,2,1
1022.34,1,2
1022.34,2,2
1022.34,2,2
1022.34,1,1
1022.34,1,1
1022.34,1,1
1022.35,1,1
1022.35,1,1
1022.35,1,1
1022.35,1,1
1022.35,0,1
1022.36,1,1
1022.36,1,1
1022.36,2,4
1022.36,4,2
1022.37,0,0
1022.37,0,1
1022.37,2,1
1022.37,1,2
1022.37,3,2
1022.37,2,1
1022.37,1,0
1022.38,0,2
1022.38,2,1
1022.38,1,1
1022.38,1,1
1022.38,1,0
1022.39,1,1
1022.39,1,2
1022.39,3,3
1022.39,2,1
1022.39,1,0
1022.39,1,2
1022.39,2,2
1022.4,1,1
1022.4,1,1
1022.4,1,0
1022.4,1,2
1022.4,2,2
1022.41,2,1
1022.41,2,2
1022.41,2,2
1022.41,2,2
1022.41,1,1
1022.41,1,2
1022.41,2,2
1022.42,2,2
1022.42,1,1
1022.42,1,2
1022.42,2,3
1022.42,2,1
1022.43,0,1
1022.43,1,1
1022.43,2,1
1022.43,1,1
1022.43,1,2
1022.43,2,2
1022.43,2,2
1022.44,2,2
1022.44,2,2
1022.44,1,1
1022.44,1,1
1022.45,1,1
1022.45,1,0
1022.45,1,2
1022.45,2,1
1022.45,1,1
1022.46,1,1
1022.46,2,2
1022.46,2,1
1022.46,2,5
1022.46,5,2
1022.46,0,0
1022.46,0,0
1022.47,1,1
1022.47,2,2
1022.47,2,1
1022.47,1,0
1022.47,0,0
1022.48,0,1
1022.48,2,2
1022.48,2,2
1022.48,2,2
1022.48,2,2
1022.48,2,2
1022.48,2,2
1022.49,1,1
1022.49,1,1
1022.49,1,1
1022.49,0,1
1022.5,1,1
1022.5,2,2
1022.5,2,2
1022.5,2,1
1022.5,1,1
1022.5,2,2
1022.5,3,2
1022.5,2,1
1022.51,1,1
1022.51,1,1
1022.51,0,1
1022.51,1,2
1022.52,2,2
1022.52,2,2
1022.52,2,1
1022.52,1,1
1022.52,1,0
1022.53,1,1
1022.53,1,1
1022.53,1,2
1022.53,2,2
1022.53,2,1
1022.53,1,0
1022.53,1,1
1022.54,3,4
1022.54,3,2
1022.54,1,0
1022.54,0,0
1022.54,1,1
1022.55,2,1
1022.55,1,1
1022.55,0,0
1022.55,1,1
1022.55,1,1
1022.55,2,2
1022.55,1,1
1022.56,1,1
1022.56,2,2
1022.56,4,5
1022.56,5,1
1022.57,0,-1
1022.57,-1,0
1022.57,0,1
1022.57,1,1
1022.57,1,1
1022.57,2,2
1022.57,2,2
1022.58,2,2
1022.58,2,2
1022.58,2,1
1022.58,1,2
1022.58,2,2
1022.59,2,2
1022.59,1,1
1022.59,1,1
1022.59,1,1
1022.59,1,1
1022.59,1,1
1022.59,1,1
1022.6,1,1
1022.6,1,1
1022.6,1,1
1022.6,1,0
1022.6,1,1
1022.61,1,1
1022.61,1,1
1022.61,1,2
1022.61,2,1
1022.61,1,1
1022.62,1,1
1022.62,2,2
1022.62,2,1
1022.62,1,2
1022.62,2,2
1022.62,2,2
1022.62,1,1
1022.63,0,1
1022.63,1,1
1022.63,2,2
1022.63,2,2
1022.64,2,2
1022.64,1,1
1022.64,1,1
1022.64,1,2
1022.64,2,3
1022.64,3,0
1022.64,0,0
1022.65,0,1
1022.65,2,2
1022.65,2,2
1022.65,2,2
1022.65,2,2
1022.66,2,1
1022.66,1,1
1022.66,0,1
1022.66,1,1
1022.66,2,2
1022.66,2,1
1022.66,0,1
1022.67,3,3
1022.67,3,2
1022.67,1,1
1022.67,1,1
1022.67,1,1
1022.68,1,0
1022.68,0,1
1022.68,1,1
1022.68,1,2
1022.68,2,2
1022.68,1,1
1022.68,1,2
1022.69,2,2
1022.69,2,2
1022.69,1,1
1022.69,2,2
1022.69,2,2
1022.7,1,1
1022.7,1,1
1022.7,2,2
1022.7,2,2
1022.71,1,2
1022.71,2,2
1022.71,2,2
1022.71,1,1
1022.71,1,1
1022.71,1,1
1022.71,1,0
1022.72,1,2
1022.72,2,2
1022.72,2,1
1022.72,1,2
1022.72,2,2
1022.73,2,1
1022.73,1,1
1022.73,1,1
1022.73,1,1
1022.73,1,1
1022.73,0,1
1022.73,2,1
1022.74,1,1
1022.74,1,1
1022.74,1,1
1022.74,1,2
1022.74,2,3
1022.75,4,2
1022.75,1,0
1022.75,0,1
1022.75,1,2
1022.75,2,2
1022.75,2,2
1022.75,1,1
1022.76,1,1
1022.76,1,1
1022.76,1,1
1022.76,0,1
1022.77,1,1
1022.77,0,0
1022.77,1,4
1022.77,5,3
1022.77,1,0
1022.77,0,0
1022.77,1,2
1022.78,2,1
1022.78,1,1
1022.78,1,2
1022.78,2,2
1022.78,1,2
1022.79,2,2
1022.79,2,1
1022.79,0,1
1022.79,2,2
1022.79,2,2
1022.8,2,1
1022.8,1,1
1022.8,1,1
1022.8,1,1
1022.8,2,2
1022.8,2,3
1022.8,2,2
1022.81,1,1
1022.81,1,1
1022.81,1,1
1022.81,1,1
1022.81,1,1
1022.82,1,1
1022.82,1,1
1022.82,1,1
1022.82,1,0
1022.82,1,1
1022.82,1,1
1022.82,1,1
1022.83,1,1
1022.83,1,1
1022.83,1,1
1022.83,1,0
1022.84,1,1
1022.84,1,1
1022.84,1,2
1022.84,2,2
1022.84,2,2
1022.84,2,2
1022.84,2,2
1022.85,2,1
1022.85,1,1
1022.85,1,1
1022.85,0,1
1022.85,1,2
1022.86,2,2
1022.86,2,1
1022.86,1,2
1022.86,2,2
1022.86,2,2
1022.86,1,1
1022.86,1,1
1022.87,2,2
1022.87,2,2
1022.87,2,2
1022.87,1,2
1022.87,2,2
1022.88,1,1
1022.88,0,0
1022.88,1,3
1022.88,4,3
1022.89,1,0
1022.89,0,2
1022.89,4,3
1022.89,3,1
1022.89,-1,-1
1022.89,0,1
1022.89,2,2
1022.9,2,2
1022.9,2,2
1022.9,2,2
1022.9,2,2
1022.9,2,2
1022.91,1,1
1022.91,1,2
1022.91,2,2
1022.91,2,2
1022.91,2,2
1022.91,1,1
1022.91,1,1
1022.92,1,1
1022.92,1,1
1022.92,0,0
1022.92,1,1
1022.92,2,2
1022.93,2,2
1022.93,2,3
1022.93,2,2
1022.93,1,1
1022.93,0,1
1022.93,1,0
1022.93,0,0
1022.94,1,1
1022.94,2,2
1022.94,2,2
1022.94,2,2
1022.94,2,2
1022.95,3,2
1022.95,2,1
1022.95,0,0
1022.95,0,0
1022.96,0,1
1022.96,2,2
1022.96,2,2
1022.96,2,2
1022.96,2,2
1022.96,2,2
1022.96,2,1
1022.97,1,1
1022.97,1,1
1022.97,1,1
1022.97,0,1
1022.97,1,1
1022.98,1,2
1022.98,2,3
1022.98,2,2
1022.98,1,1
1022.98,2,2
1022.98,2,2
1022.98,2,2
1022.99,1,1
1022.99,1,0
1022.99,1,1
1022.99,1,2
1022.99,2,2
1023,1,1
1023,1,2
1023,2,3
1023,3,1
1023,0,0
1023,1,1
1023,2,2
1023.01,2,2
1023.01,2,1
1023.01,1,1
1023.01,2,2
1023.01,2,1
1023.02,1,1
1023.02,2,2
1023.02,2,2
1023.02,2,2
1023.02,2,2
1023.02,2,1
1023.02,1,1
1023.03,0,0
1023.03,1,1
1023.03,0,1
1023.03,1,1
1023.04,1,2
1023.04,2,2
1023.04,2,2
1023.04,3,2
1023.04,1,1
1023.05,1,1
1023.05,1,1
1023.05,1,1
1023.05,0,1
1023.05,1,1
1023.05,1,1
1023.05,2,2
1023.06,2,2
1023.06,2,2
1023.06,2,2
1023.06,2,2
1023.06,1,1
1023.07,1,1
1023.07,1,0
1023.07,1,1
1023.07,1,1
1023.07,1,1
1023.07,1,2
1023.07,3,4
1023.08,3,2
1023.08,0,0
1023.08,0,1
1023.08,1,1
1023.09,1,2
1023.09,4,3
1023.09,2,1
1023.09,0,0
1023.09,0,1
1023.09,2,2
1023.09,2,2
1023.09,2,1
1023.1,1,1
1023.1,1,1
1023.1,1,1
1023.1,0,1
1023.11,0,0
1023.11,1,1
1023.11,3,5
1023.11,4,3
1023.11,1,0
1023.11,0,1
1023.11,1,0
1023.12,0,1
1023.12,1,1
1023.12,1,1
1023.12,1,2
1023.12,2,2
1023.13,2,2
1023.13,2,2
1023.13,2,2
1023.13,2,2
1023.13,1,1
1023.14,1,1
1023.14,1,0
1023.14,1,1
1023.14,1,1
1023.14,1,2
1023.14,2,1
1023.14,0,0
1023.15,1,1
1023.15,1,1
1023.15,2,2
1023.15,2,2
1023.16,2,2
1023.16,2,2
1023.16,1,1
1023.16,1,2
1023.16,2,2
1023.16,2,2
1023.16,2,2
1023.17,2,1
1023.17,1,1
1023.17,1,1
1023.17,1,1
1023.17,1,0
1023.18,1,1
1023.18,1,1
1023.18,2,3
1023.18,2,2
1023.18,1,1
1023.18,1,2
1023.18,2,2
1023.19,2,3
1023.19,3,3
1023.19,2,0
1023.19,0,-1
1023.19,1,5
1023.2,5,2
1023.2,0,0
1023.2,0,0
1023.2,0,2
1023.2,2,2
1023.2,2,2
1023.2,2,1
1023.21,1,1
1023.21,2,1
1023.21,1,1
1023.21,0,1
1023.21,1,1
1023.22,1,1
1023.22,2,3
1023.22,3,2
1023.22,1,1
1023.23,1,2
1023.23,2,2
1023.23,2,2
1023.23,2,2
1023.23,2,1
1023.23,1,1
1023.23,1,2
1023.24,2,1
1023.24,1,1
1023.24,1,2
1023.24,2,1
1023.24,1,1
1023.25,1,1
1023.25,1,1
1023.25,1,2
1023.25,2,3
1023.25,3,2
1023.25,1,1
1023.25,2,2
1023.26,2,1
1023.26,1,1
1023.26,1,1
1023.26,1,1
1023.26,1,0
1023.27,1,1
1023.27,1,1
1023.27,3,4
1023.27,4,2
1023.27,0,0
1023.27,0,1
1023.27,1,2
1023.28,1,1
1023.28,0,0
1023.28,1,1
1023.28,1,2
1023.29,2,2
1023.29,1,1
1023.29,1,1
1023.29,2,1
1023.29,1,1
1023.3,1,2
1023.3,3,3
1023.3,3,2
1023.3,1,0
1023.3,0,0
1023.3,1,1
1023.3,1,2
1023.31,2,2
1023.31,2,2
1023.31,1,1
1023.31,1,1
1023.31,1,2
1023.32,2,2
1023.32,2,2
1023.32,1,1
1023.32,2,2
1023.32,2,2
1023.32,2,2
1023.32,2,2
1023.33,2,1
1023.33,1,0
1023.33,1,1
1023.33,1,1
1023.33,1,0
1023.34,0,0
1023.34,0,0
1023.34,3,5
1023.34,5,4
1023.34,1,0
1023.34,0,1
1023.34,2,3
1023.35,3,1
1023.35,1,1
1023.35,2,2
1023.35,1,0
1023.36,0,0
1023.36,2,1
1023.36,1,1
1023.36,1,1
1023.36,1,2
1023.36,3,2
1023.36,2,2
1023.37,2,2
1023.37,2,1
1023.37,1,1
1023.37,2,1
1023.37,1,1
1023.38,1,1
1023.38,1,1
1023.38,1,1
1023.38,1,2
1023.38,3,3
1023.39,3,1
1023.39,1,0
1023.39,1,2
1023.39,2,1
1023.39,0,1
1023.39,2,2
1023.39,2,2
1023.4,0,0
1023.4,0,0
1023.4,2,6
1023.4,7,4
1023.4,1,0
1023.41,0,-1
1023.41,-1,0
1023.41,0,1
1023.41,2,4
1023.41,4,3
1023.41,2,1
1023.41,0,1
1023.42,0,0
1023.42,0,-1
1023.42,0,2
1023.42,4,4
1023.43,4,3
1023.43,2,1
1023.43,1,1
1023.43,0,2
1023.43,1,1
1023.43,0,1
1023.43,1,1
1023.44,0,1
1023.44,1,3
1023.44,4,4
1023.44,4,2
1023.44,0,0
1023.45,0,0
1023.45,0,0
1023.45,0,0
1023.45,1,2
1023.45,3,3
1023.45,2,2
1023.45,1,1
1023.46,2,4
1023.46,4,4
1023.46,2,0
1023.46,0,0
1023.46,0,0
1023.47,0,0
1023.47,1,2
1023.47,4,4
1023.47,4,3
1023.48,1,0
1023.48,0,1
1023.48,1,1
1023.48,1,1
1023.48,2,2
1023.48,2,1
1023.48,0,1
1023.48,2,3
1023.49,2,1
1023.49,0,0
1023.49,1,2
1023.49,3,3
1023.5,2,2
1023.5,2,3
1023.5,2,0
1023.5,-1,0
1023.5,0,2
1023.5,5,4
1023.5,3,2
1023.51,1,0
1023.51,-1,-1
1023.51,0,2
1023.51,3,3
1023.51,2,2
1023.52,2,2
1023.52,3,2
1023.52,1,0
1023.52,0,0
1023.52,1,3
1023.52,4,4
1023.52,4,2
1023.53,0,0
1023.53,0,0
1023.53,0,1
1023.53,2,2
1023.53,2,2
1023.54,2,1
1023.54,1,2
1023.54,3,2
1023.54,1,1
1023.54,0,1
1023.54,2,2
1023.54,2,1
1023.55,0,0
1023.55,0,2
1023.55,2,3
1023.55,3,3
1023.56,2,2
1023.56,2,2
1023.56,1,1
1023.56,1,0
1023.56,0,1
1023.57,1,2
1023.57,3,2
1023.57,1,2
1023.57,3,3
1023.57,1,0
1023.57,0,0
1023.57,1,2
1023.58,1,0
1023.58,0,2
1023.58,3,2
1023.58,2,2
1023.58,3,5
1023.59,5,1
1023.59,0,0
1023.59,0,1
1023.59,3,2
1023.59,2,0
1023.59,0,0
1023.59,0,0
1023.6,0,0
1023.6,1,3
1023.6,3,4
1023.6,4,5
1023.6,4,3
1023.61,2,0
1023.61,1,0
1023.61,1,1
1023.61,1,1
1023.61,1,1
1023.61,0,0
1023.61,0,1
1023.62,1,2
1023.62,1,1
1023.62,1,1
1023.62,0,1
1023.63,1,2
1023.63,3,3
1023.63,2,2
1023.63,2,2
1023.63,2,1
1023.64,1,1
1023.64,2,3
1023.64,3,1
1023.64,0,0
1023.64,0,0
1023.64,0,1
1023.64,3,5
1023.65,4,2
1023.65,1,0
1023.65,0,2
1023.65,3,3
1023.65,0,0
1023.66,0,0
1023.66,0,1
1023.66,2,2
1023.66,2,2
1023.66,2,2
1023.66,1,1
1023.66,1,1
1023.67,2,2
1023.67,2,3
1023.67,3,2
1023.67,1,0
1023.67,0,1
1023.68,2,2
1023.68,2,2
1023.68,1,1
1023.68,0,1
1023.68,1,1
1023.68,2,3
1023.68,2,1
1023.69,1,1
1023.69,2,2
1023.69,1,0
1023.69,0,0
1023.7,0,0
1023.7,1,4
1023.7,5,3
1023.7,2,0
1023.7,0,0
1023.7,1,1
1023.7,3,6
1023.71,5,3
1023.71,0,-1
1023.71,0,-1
1023.71,0,0
1023.71,1,2
1023.72,3,3
1023.72,3,2
1023.72,2,1
1023.72,1,1
1023.72,0,1
1023.73,3,3
1023.73,2,3
1023.73,2,2
1023.73,2,1
1023.73,1,1
1023.73,1,1
1023.73,1,0
1023.74,0,0
1023.74,0,0
1023.74,1,2
1023.74,3,4
1023.74,3,3
1023.75,1,0
1023.75,0,0
1023.75,2,3
1023.75,3,2
1023.75,1,0
1023.75,0,1
1023.75,0,0
1023.76,0,0
1023.76,0,2
1023.76,3,3
1023.76,2,1
1023.77,1,0
1023.77,1,2
1023.77,3,2
1023.77,2,1
1023.77,0,0
1023.77,0,1
1023.77,3,5
1023.78,3,1
1023.78,0,0
1023.78,0,1
1023.78,2,3
1023.78,3,2
1023.79,2,1
1023.79,0,0
1023.79,1,2
1023.79,1,1
1023.79,2,1
1023.79,0,0
1023.79,1,2
1023.8,2,2
1023.8,2,2
1023.8,2,2
1023.8,1,1
1023.8,1,2
1023.81,3,3
1023.81,3,2
1023.81,2,0
1023.81,0,0
1023.81,0,1
1023.82,2,3
1023.82,3,2
1023.82,2,2
1023.82,2,2
1023.82,1,2
1023.82,1,1
1023.82,1,0
1023.83,1,1
1023.83,0,1
1023.83,2,2
1023.83,1,1
1023.84,0,1
1023.84,2,3
1023.84,4,3
1023.84,1,0
1023.84,0,0
1023.84,0,1
1023.84,3,6
1023.85,5,2
1023.85,0,0
1023.85,0,1
1023.85,3,2
1023.85,1,0
1023.86,0,0
1023.86,0,0
1023.86,1,2
1023.86,3,3
1023.86,2,2
1023.86,2,2
1023.86,2,2
1023.87,1,2
1023.87,2,2
1023.87,2,2
1023.87,1,1
1023.87,0,0
1023.88,0,0
1023.88,0,1
1023.88,2,3
1023.88,2,2
1023.88,2,2
1023.88,2,2
1023.88,3,2
1023.89,2,1
1023.89,1,0
1023.89,0,1
1023.89,2,2
1023.89,2,2
1023.9,1,0
1023.9,0,0
1023.9,1,1
1023.9,2,2
1023.91,1,1
1023.91,1,1
1023.91,2,3
1023.91,5,5
1023.91,3,1
1023.91,-1,0
1023.91,0,0
1023.92,0,1
1023.92,2,2
1023.92,2,2
1023.92,2,2
1023.92,2,1
1023.93,1,1
1023.93,1,2
1023.93,2,2
1023.93,2,2
1023.93,3,2
1023.93,2,1
1023.93,0,0
1023.94,0,1
1023.94,2,3
1023.94,3,2
1023.94,1,0
1023.94,0,1
1023.95,1,2
1023.95,2,3
1023.95,3,2
1023.95,1,0
1023.95,0,1
1023.95,1,2
1023.95,2,3
1023.96,2,1
1023.96,0,1
1023.96,1,1
1023.96,1,1
1023.97,0,1
1023.97,1,1
1023.97,2,2
1023.97,3,2
1023.97,2,1
1023.97,0,0
1023.97,1,2
1023.98,3,1
1023.98,0,1
1023.98,1,3
1023.98,3,2
1023.98,1,0
1023.99,0,0
1023.99,0,0
1023.99,1,1
1023.99,2,1
1023.99,1,3
1024,4,3
1024,1,0
1024,0,1
1024,3,3
1024,3,2
1024,2,1
1024,1,0
1024.01,1,1
1024.01,2,2
1024.01,2,1
1024.01,1,0
1024.01,0,0
1024.02,0,0
1024.02,1,1
1024.02,2,2
1024.02,2,2
1024.02,1,1
1024.02,1,2
1024.02,3,3
1024.03,2,1
1024.03,0,0
1024.03,0,1
1024.03,3,3
1024.04,4,4
1024.04,3,2
1024.04,1,0
1024.04,0,0
1024.04,0,1
1024.04,1,1
1024.04,1,1
1024.05,3,5
1024.05,6,2
1024.05,0,0
1024.05,0,0
1024.05,2,2
1024.06,2,1
1024.06,0,0
1024.06,0,0
1024.06,1,2
1024.06,2,2
1024.07,2,2
1024.07,2,2
1024.07,2,3
1024.07,2,2
1024.07,1,1
1024.07,1,1
1024.07,0,0
1024.08,1,2
1024.08,2,2
1024.08,2,1
1024.08,1,2
1024.08,2,2
1024.09,0,-1
1024.09,-1,0
1024.09,2,3
1024.09,3,3
1024.09,3,2
1024.09,1,2
1024.09,2,3
1024.1,2,2
1024.1,1,0
1024.1,0,0
1024.1,-2,-1
1024.11,2,5
1024.11,7,7
1024.11,6,3
1024.11,0,0
1024.11,-1,0
1024.11,1,1
1024.11,1,0
1024.12,0,1
1024.12,1,2
1024.12,2,2
1024.12,1,1
1024.12,1,1
1024.13,2,2
1024.13,3,3
1024.13,1,1
1024.13,2,3
1024.13,2,1
1024.13,0,1
1024.13,1,1
1024.14,1,1
1024.14,2,2
1024.14,2,3
1024.14,3,4
1024.14,3,1
1024.15,0,-1
1024.15,-1,0
1024.15,1,1
1024.15,2,2
1024.16,1,2
1024.16,3,3
1024.16,2,2
1024.16,1,1
1024.16,0,0
1024.16,1,3
1024.16,2,0
1024.17,0,0
1024.17,0,0
1024.17,1,2
1024.17,5,7
1024.17,6,3
1024.18,0,0
1024.18,0,0
1024.18,0,1
1024.18,2,2
1024.18,2,2
1024.18,1,0
1024.18,0,2
1024.19,5,5
1024.19,4,2
1024.19,1,0
1024.19,0,0
1024.19,0,0
1024.2,0,1
1024.2,2,2
1024.2,2,2
1024.2,1,1
1024.2,1,1
1024.2,1,1
1024.2,0,2
1024.21,3,4
1024.21,3,2
1024.21,2,1
1024.21,1,0
1024.21,0,1
1024.22,1,2
1024.22,3,2
1024.22,2,1
1024.22,1,2
1024.22,1,1
1024.22,1,0
1024.22,0,1
1024.23,1,0
1024.23,0,1
1024.23,2,3
1024.23,4,3
1024.24,3,2
1024.24,2,3
1024.24,4,1
1024.24,0,0
1024.24,0,0
1024.25,0,0
1024.25,0,0
1024.25,0,0
1024.25,1,4
1024.25,4,3
1024.25,2,2
1024.25,1,2
1024.26,3,3
1024.26,2,2
1024.26,3,4
1024.26,4,3
1024.26,1,0
1024.27,0,0
1024.27,1,1
1024.27,1,1
1024.27,1,1
1024.27,2,2
1024.27,0,0
1024.27,0,0
1024.28,0,1
1024.28,2,3
1024.28,3,3
1024.28,3,2
1024.28,2,2
1024.29,3,3
1024.29,2,2
1024.29,1,0
1024.29,0,0
1024.29,0,1
1024.29,0,0
1024.29,0,1
1024.3,1,3
1024.3,5,5
1024.3,3,2
1024.3,1,1
1024.31,1,1
1024.31,1,0
1024.31,0,0
1024.31,1,1
1024.31,1,1
1024.31,0,1
1024.31,2,4
1024.32,5,4
1024.32,1,0
1024.32,0,-1
1024.32,0,1
1024.32,2,2
1024.33,1,0
1024.33,0,1
1024.33,3,5
1024.33,5,3
1024.33,2,1
1024.34,0,0
1024.34,0,1
1024.34,2,2
1024.34,2,2
1024.34,3,2
1024.34,1,1
1024.34,1,1
1024.35,0,0
1024.35,1,2
1024.35,2,1
1024.35,1,0
1024.35,0,1
1024.36,2,3
1024.36,3,3
1024.36,3,3
1024.36,2,1
1024.36,0,0
1024.36,0,2
1024.36,4,3
1024.37,2,1
1024.37,0,0
1024.37,0,0
1024.37,1,1
1024.38,2,2
1024.38,2,3
1024.38,3,1
1024.38,1,1
1024.38,2,2
1024.38,2,2
1024.38,1,1
1024.39,1,1
1024.39,2,1
1024.39,1,0
1024.39,0,1
1024.39,1,2
1024.4,3,3
1024.4,3,2
1024.4,1,0
1024.4,0,0
1024.4,0,2
1024.41,2,2
1024.41,1,0
1024.41,1,2
1024.41,1,1
1024.41,2,2
1024.41,1,2
1024.41,3,3
1024.42,2,1
1024.42,0,1
1024.42,2,2
1024.42,1,1
1024.43,0,0
1024.43,1,3
1024.43,4,2
1024.43,2,1
1024.43,1,1
1024.43,1,1
1024.43,1,0
1024.43,0,0
1024.44,0,1
1024.44,2,4
1024.44,4,5
1024.44,3,1
1024.45,0,0
1024.45,0,0
1024.45,0,0
1024.45,2,1
1024.45,1,4
1024.45,5,5
1024.45,2,1
1024.46,1,1
1024.46,0,0
1024.46,0,1
1024.46,2,2
1024.46,2,1
1024.47,0,0
1024.47,1,2
1024.47,2,1
1024.47,1,1
1024.47,1,2
1024.47,2,2
1024.47,2,1
1024.48,1,1
1024.48,1,2
1024.48,2,2
1024.48,2,2
1024.48,2,2
1024.49,2,2
1024.49,1,2
1024.49,2,1
1024.49,1,0
1024.5,0,1
1024.5,2,2
1024.5,1,0
1024.5,-1,0
1024.5,0,2
1024.5,2,2
1024.5,1,1
1024.51,1,1
1024.51,3,6
1024.51,7,4
1024.51,1,0
1024.51,0,0
1024.52,0,0
1024.52,0,1
1024.52,2,3
1024.52,2,2
1024.52,1,1
1024.52,1,1
1024.52,0,1
1024.53,0,1
1024.53,2,3
1024.53,3,2
1024.53,2,1
1024.53,1,1
1024.54,1,1
1024.54,2,2
1024.54,0,0
1024.54,0,1
1024.54,2,4
1024.54,4,2
1024.54,0,0
1024.55,0,0
1024.55,1,1
1024.55,2,2
1024.55,3,3
1024.55,2,1
1024.56,0,0
1024.56,0,0
1024.56,1,4
1024.56,6,5
1024.56,1,0
1024.56,0,0
1024.56,0,1
1024.57,1,1
1024.57,2,2
1024.57,2,1
1024.57,0,0
1024.58,0,2
1024.58,2,2
1024.58,1,1
1024.58,0,0
1024.58,1,2
1024.59,3,3
1024.59,3,3
1024.59,2,2
1024.59,2,1
1024.59,0,0
1024.59,1,4
1024.59,5,2
1024.6,0,0
1024.6,0,1
1024.6,2,3
1024.6,3,3
1024.6,2,1
1024.61,1,1
1024.61,2,2
1024.61,2,1
1024.61,1,0
1024.61,0,0
1024.61,0,0
1024.61,1,1
1024.62,1,2
1024.62,1,1
1024.62,3,4
1024.62,5,4
1024.62,2,0
1024.63,0,1
1024.63,1,2
1024.63,2,1
1024.63,0,0
1024.63,0,0
1024.63,0,1
1024.63,3,4
1024.64,4,7
1024.64,6,3
1024.64,0,-1
1024.64,0,0
1024.65,0,0
1024.65,1,1
1024.65,1,1
1024.65,0,0
1024.65,0,0
1024.65,1,2
1024.65,4,6
1024.66,6,3
1024.66,1,1
1024.66,1,1
1024.66,0,0
1024.66,0,0
1024.67,-1,0
1024.67,0,1
1024.67,2,5
1024.67,4,2
1024.67,0,-2
1024.68,-2,0
1024.68,0,1
1024.68,4,5
1024.68,7,11
1024.68,10,8
1024.68,5,0
1024.68,-3,-1
1024.69,3,10
1024.69,8,3
1024.69,-6,-19
1024.69,-16,-6
1024.7,6,16
1024.7,17,14
1024.7,6,-3
1024.7,-15,-28
1024.7,-23,-2
1024.7,29,53
1024.7,46,20
1024.71,-7,-30
1024.71,-39,-30
1024.71,-11,7
1024.71,15,10
1024.71,6,2
1024.72,2,4
1024.72,3,3
1024.72,4,5
1024.72,1,0
1024.72,2,7
1024.72,4,-7
1024.72,-18,-18
1024.73,-6,14
1024.73,26,27
1024.73,18,1
1024.73,-9,-15
1024.74,-12,-9
1024.74,-9,-10
1024.74,-4,7
1024.74,17,25
1024.74,24,15
1024.74,11,13
1024.74,15,10
1024.75,2,0
1024.75,-3,-10
1024.75,-16,-24
1024.75,-24,-16
1024.76,-10,-5
1024.76,-2,5
1024.76,14,18
1024.76,16,8
1024.76,2,2
1024.77,3,4
1024.77,5,11
1024.77,16,10
1024.77,1,-2
1024.77,1,10
1024.77,17,12
1024.77,0,-7
1024.78,-12,-12
1024.78,-10,-7
1024.78,-4,-2
1024.78,-2,-2
1024.79,-3,-4
1024.79,-4,0
1024.79,7,9
1024.79,7,5
1024.79,2,4
1024.79,8,7
1024.79,2,0
1024.8,-3,-2
1024.8,0,3
1024.8,4,3
1024.8,2,1
1024.8,0,1
1024.81,3,6
1024.81,7,7
1024.81,5,2
1024.81,0,0
1024.81,0,-2
1024.81,-2,0
1024.81,1,2
1024.82,2,1
1024.82,1,3
1024.82,5,5
1024.82,3,3
1024.82,3,2
1024.83,0,0
1024.83,-1,-2
1024.83,-3,0
1024.83,4,6
1024.83,6,5
1024.84,2,0
1024.84,0,0
1024.84,0,0
1024.84,0,0
1024.84,2,3
1024.84,4,4
1024.84,6,4
1024.85,1,4
1024.85,10,6
1024.85,-2,-8
1024.85,-7,-4
1024.86,-2,1
1024.86,4,4
1024.86,5,4
1024.86,4,2
1024.86,1,0
1024.86,1,0
1024.86,0,0
1024.87,-1,-1
1024.87,0,0
1024.87,3,5
1024.87,7,6
1024.87,5,3
1024.88,1,2
1024.88,3,4
1024.88,2,1
1024.88,0,0
1024.88,0,1
1024.88,0,-2
1024.88,-2,-2
1024.89,-1,0
1024.89,4,7
1024.89,10,9
1024.89,6,0
1024.89,-2,-2
1024.9,0,3
1024.9,4,3
1024.9,2,1
1024.9,1,1
1024.9,0,0
1024.9,0,0
1024.9,0,1
1024.91,2,2
1024.91,1,0
1024.91,0,2
1024.91,7,9
1024.92,10,11
1024.92,10,5
1024.92,-1,-7
1024.92,-11,-10
1024.92,-7,-3
1024.93,1,4
1024.93,6,6
1024.93,6,4
1024.93,2,2
1024.93,2,1
1024.93,0,0
1024.93,0,1
1024.94,1,2
1024.94,3,4
1024.94,4,4
1024.94,3,2
1024.94,1,0
1024.95,-1,0
1024.95,0,0
1024.95,0,1
1024.95,3,7
1024.95,9,7
1024.95,4,4
1024.95,3,-1
1024.96,-4,-5
1024.96,-3,0
1024.96,3,3
1024.96,0,-1
1024.97,0,2
1024.97,6,6
1024.97,5,4
1024.97,1,0
1024.97,0,0
1024.97,1,2
1024.97,3,4
1024.97,2,1
1024.98,0,0
1024.98,0,0
1024.98,0,0
1024.98,0,0
1024.99,0,1
1024.99,3,2
1024.99,2,2
1024.99,3,3
1024.99,4,3
1024.99,5,5
1024.99,4,2
1025,0,-2
1025,-1,-1
1025,0,0
1025,1,1
1025,1,1
1025.01,2,2
1025.01,3,5
1025.01,6,5
1025.01,3,0
1025.01,0,0
1025.02,2,5
1025.02,5,2
1025.02,0,-2
1025.02,-3,-3
1025.02,-2,0
1025.02,2,5
1025.02,6,6
1025.03,5,5
1025.03,3,1
1025.03,0,-2
1025.03,-3,-2
1025.04,0,0
1025.04,3,3
1025.04,3,2
1025.04,1,2
1025.04,4,4
1025.04,4,3
1025.04,3,3
1025.05,2,2
1025.05,1,1
1025.05,0,0
1025.05,0,0
1025.05,0,0
1025.06,0,-1
1025.06,0,1
1025.06,3,4
1025.06,4,3
1025.06,4,4
1025.06,2,2
1025.06,2,2
1025.07,2,1
1025.07,0,0
1025.07,-1,0
1025.07,0,2
1025.07,3,5
1025.08,6,5
1025.08,1,0
1025.08,0,-1
1025.08,0,1
1025.08,3,4
1025.08,3,3
1025.08,1,0
1025.09,0,0
1025.09,1,3
1025.09,4,0
1025.09,0,0
1025.09,2,2
1025.1,3,3
1025.1,3,2
1025.1,1,1
1025.1,2,3
1025.11,2,2
1025.11,1,0
1025.11,0,1
1025.11,1,1
1025.11,1,1
1025.11,1,1
1025.11,1,1
1025.12,2,2
1025.12,2,2
1025.12,3,3
1025.12,2,2
1025.12,1,0
1025.13,0,0
1025.13,0,0
1025.13,1,1
1025.13,1,2
1025.13,3,4
1025.13,3,3
1025.13,2,1
1025.14,1,0
1025.14,0,0
1025.14,-1,0
1025.14,2,4
1025.14,4,3
1025.15,1,0
1025.15,1,1
1025.15,2,2
1025.15,2,2
1025.15,1,0
1025.15,0,0
1025.15,2,2
1025.16,1,2
1025.16,3,3
1025.16,5,3
1025.16,2,2
1025.16,0,0
1025.17,0,0
1025.17,0,2
1025.17,4,3
1025.17,3,2
1025.18,2,1
1025.18,1,1
1025.18,0,0
1025.18,0,0
1025.18,2,2
1025.18,2,2
1025.18,0,0
1025.19,-1,0
1025.19,2,4
1025.19,2,2
1025.19,2,3
1025.19,4,3
1025.2,3,2
1025.2,1,0
1025.2,0,0
1025.2,0,1
1025.2,0,0
1025.2,0,1
1025.2,1,2
1025.21,4,3
1025.21,3,2
1025.21,1,1
1025.21,3,4
1025.21,4,4
1025.22,1,0
1025.22,0,0
1025.22,-1,0
1025.22,1,1
1025.22,1,1
1025.22,1,2
1025.22,3,4
1025.23,4,4
1025.23,2,0
1025.23,0,0
1025.23,1,2
1025.24,2,1
1025.24,0,-1
1025.24,-1,0
1025.24,1,4
1025.24,5,3
1025.24,3,3
1025.24,3,3
1025.24,4,2
1025.25,0,0
1025.25,1,1
1025.25,1,0
1025.25,0,0
1025.26,0,0
1025.26,1,2
1025.26,3,3
1025.26,2,2
1025.26,2,2
1025.27,1,2
1025.27,2,3
1025.27,2,2
1025.27,2,2
1025.27,3,2
1025.27,1,0
1025.27,0,1
1025.28,1,0
1025.28,0,1
1025.28,1,1
1025.28,2,2
1025.28,2,2
1025.29,2,2
1025.29,1,1
1025.29,2,2
1025.29,2,2
1025.29,2,2
1025.29,2,2
1025.29,1,1
1025.3,1,1
1025.3,1,2
1025.3,2,2
1025.3,2,1
1025.31,0,1
1025.31,2,5
1025.31,5,3
1025.31,0,0
1025.31,-1,0
1025.31,0,2
1025.31,4,4
1025.32,2,1
1025.32,1,1
1025.32,2,2
1025.32,2,1
1025.32,0,0
1025.33,0,0
1025.33,0,0
1025.33,0,1
1025.33,2,4
1025.33,4,4
1025.33,4,3
1025.33,2,1
1025.34,0,0
1025.34,1,2
1025.34,2,1
1025.34,0,0
1025.34,1,1
1025.35,1,0
1025.35,1,1
1025.35,1,1
1025.35,0,0
1025.35,0,0
1025.36,2,3
1025.36,3,3
1025.36,2,1
1025.36,1,0
1025.36,0,1
1025.36,1,2
1025.36,3,4
1025.37,7,4
1025.37,1,0
1025.37,-1,0
1025.37,1,3
1025.38,3,4
1025.38,3,1
1025.38,-1,0
1025.38,0,1
1025.38,2,1
1025.38,0,0
1025.38,0,1
1025.39,2,3
1025.39,4,3
1025.39,3,3
1025.39,2,2
1025.39,1,1
1025.4,1,0
1025.4,0,1
1025.4,2,2
1025.4,2,1
1025.4,0,0
1025.4,0,1
1025.4,1,2
1025.41,2,2
1025.41,2,2
1025.41,1,1
1025.41,1,2
1025.41,3,3
1025.42,1,1
1025.42,0,1
1025.42,1,1
1025.42,2,1
1025.42,1,1
1025.42,2,2
1025.42,2,2
1025.43,3,2
1025.43,1,1
1025.43,1,2
1025.43,2,2
1025.43,1,0
1025.44,0,0
1025.44,0,0
1025.44,0,2
1025.44,4,5
1025.45,3,1
1025.45,0,0
1025.45,1,3
1025.45,3,2
1025.45,2,1
1025.45,0,0
1025.45,1,1
1025.46,1,1
1025.46,1,1
1025.46,1,2
1025.46,2,2
1025.46,2,2
1025.47,2,2
1025.47,2,2
1025.47,2,2
1025.47,2,2
1025.47,1,0
1025.47,0,0
1025.47,1,1
1025.48,1,1
1025.48,2,2
1025.48,2,1
1025.48,1,1
1025.48,2,4
1025.49,4,3
1025.49,2,0
1025.49,0,0
1025.49,0,0
1025.49,1,2
1025.49,2,2
1025.49,2,2
1025.5,2,2
1025.5,2,1
1025.5,0,0
1025.5,0,1
1025.5,2,3
1025.51,3,3
1025.51,2,2
1025.51,2,1
1025.51,0,0
1025.52,0,2
1025.52,2,2
1025.52,4,4
1025.52,4,2
1025.52,1,0
1025.52,0,0
1025.52,0,0
1025.53,0,0
1025.53,1,1
1025.53,1,1
1025.53,2,2
1025.53,2,2
1025.54,2,2
1025.54,2,2
1025.54,1,1
1025.54,2,2
1025.54,3,2
1025.54,1,0
1025.54,1,1
1025.55,2,2
1025.55,3,3
1025.55,2,0
1025.55,0,0
1025.55,1,2
1025.56,2,2
1025.56,2,3
1025.56,2,2
1025.56,2,1
1025.56,1,1
1025.56,0,1
1025.56,1,1
1025.57,1,0
1025.57,0,0
1025.57,1,3
1025.57,5,6
1025.57,3,2
1025.58,1,0
1025.58,0,1
1025.58,1,1
1025.58,1,0
1025.58,1,2
1025.58,2,1
1025.58,0,0
1025.59,1,1
1025.59,1,1
1025.59,1,1
1025.59,1,1
1025.6,3,5
1025.6,4,1
1025.6,0,0
1025.6,1,2
1025.6,2,2
1025.61,1,1
1025.61,1,1
1025.61,1,2
1025.61,2,2
1025.61,3,3
1025.61,2,2
1025.61,1,1
1025.62,0,0
1025.62,1,0
1025.62,1,1
1025.62,1,2
1025.62,2,2
1025.63,2,2
1025.63,1,1
1025.63,2,2
1025.63,2,2
1025.63,1,1
1025.63,1,2
1025.63,2,2
1025.64,2,1
1025.64,1,1
1025.64,1,2
1025.64,3,3
1025.65,1,1
1025.65,2,1
1025.65,1,1
1025.65,2,3
1025.65,3,1
1025.65,0,0
1025.65,0,0
1025.66,1,1
1025.66,1,3
1025.66,3,3
1025.66,2,1
1025.66,0,0
1025.67,0,2
1025.67,3,3
1025.67,1,1
1025.67,1,1
1025.67,1,1
1025.67,2,4
1025.67,3,2
1025.68,1,0
1025.68,0,1
1025.68,2,3
1025.68,3,2
1025.68,0,0
1025.69,0,0
1025.69,0,0
1025.69,0,1
1025.69,3,4
1025.69,4,4
1025.7,3,1
1025.7,0,0
1025.7,0,1
1025.7,3,4
1025.7,4,3
1025.7,1,0
1025.7,0,0
1025.71,0,1
1025.71,2,3
1025.71,3,2
1025.71,0,0
1025.72,0,0
1025.72,1,2
1025.72,2,2
1025.72,2,3
1025.72,3,3
1025.72,2,1
1025.72,1,1
1025.73,1,1
1025.73,0,0
1025.73,0,1
1025.73,1,1
1025.73,2,2
1025.74,2,1
1025.74,1,1
1025.74,3,4
1025.74,3,2
1025.74,1,0
1025.74,0,1
1025.74,1,1
1025.75,0,0
1025.75,0,2
1025.75,5,6
1025.75,6,3
1025.75,0,0
1025.76,0,0
1025.76,1,1
1025.76,1,1
1025.76,1,1
1025.76,1,0
1025.76,1,1
1025.76,1,1
1025.77,1,1
1025.77,2,2
1025.77,2,2
1025.77,2,1
1025.77,1,0
1025.78,1,3
1025.78,5,4
1025.78,2,0
1025.78,0,0
1025.79,0,1
1025.79,2,2
1025.79,2,2
1025.79,0,0
1025.79,1,2
1025.79,2,2
1025.79,3,3
1025.8,2,2
1025.8,2,2
1025.8,2,1
1025.8,0,0
1025.8,1,0
1025.81,0,1
1025.81,1,1
1025.81,1,2
1025.81,2,2
1025.81,2,2
1025.81,3,2
1025.81,1,1
1025.82,1,0
1025.82,0,0
1025.82,0,2
1025.82,3,4
1025.82,4,3
1025.83,1,0
1025.83,0,0
1025.83,2,4
1025.83,3,2
1025.83,1,1
1025.83,2,2
1025.83,1,1
1025.84,0,0
1025.84,2,2
1025.84,1,0
1025.84,0,1
1025.84,1,1
1025.85,1,1
1025.85,1,2
1025.85,1,1
1025.85,1,1
1025.85,1,2
1025.85,2,3
1025.85,3,2
1025.86,2,1
1025.86,1,1
1025.86,1,1
1025.86,1,0
1025.87,1,1
1025.87,1,2
1025.87,3,3
1025.87,1,0
1025.87,0,0
1025.88,0,1
1025.88,2,2
1025.88,2,2
1025.88,1,1
1025.88,1,1
1025.88,2,2
1025.88,1,1
1025.89,2,2
1025.89,2,2
1025.89,3,2
1025.89,0,0
1025.89,0,1
1025.9,1,1
1025.9,2,3
1025.9,3,3
1025.9,1,0
1025.9,0,0
1025.9,1,2
1025.9,3,4
1025.91,2,0
1025.91,0,0
1025.91,1,4
1025.91,4,4
1025.92,2,0
1025.92,0,-1
1025.92,0,1
1025.92,2,2
1025.92,2,1
1025.92,1,1
1025.92,2,2
1025.92,1,1
1025.93,0,1
1025.93,3,3
1025.93,2,2
1025.93,2,2
1025.94,2,1
1025.94,1,0
1025.94,1,2
1025.94,1,1
1025.94,1,0
1025.94,1,1
1025.95,1,2
1025.95,2,3
1025.95,3,2
1025.95,1,1
1025.95,0,0
1025.95,1,2
1025.96,2,2
1025.96,2,1
1025.96,1,1
1025.96,1,0
1025.96,1,2
1025.97,2,2
1025.97,1,1
1025.97,1,1
1025.97,1,2
1025.97,2,2
1025.97,2,2
1025.97,2,2
1025.98,2,2
1025.98,1,1
1025.98,1,1
1025.98,2,1
1025.99,0,0
1025.99,2,1
1025.99,2,1
1025.99,1,0
1025.99,0,0
1025.99,1,3
1025.99,4,4
1026,2,1
1026,0,0
1026,0,1
1026,2,4
1026,7,5
1026.01,1,0
1026.01,0,1
1026.01,1,2
1026.01,2,1
1026.01,1,0
1026.01,0,0
1026.01,1,1
1026.02,1,1
1026.02,1,1
1026.02,1,1
1026.02,1,2
1026.02,2,2
1026.03,2,2
1026.03,2,2
1026.03,2,2
1026.03,1,1
1026.03,2,3
1026.04,1,1
1026.04,0,1
1026.04,1,1
1026.04,1,1
1026.04,1,1
1026.04,1,2
1026.04,2,2
1026.05,1,1
1026.05,2,2
1026.05,2,2
1026.05,3,2
1026.06,2,2
1026.06,2,0
1026.06,0,1
1026.06,1,1
1026.06,1,1
1026.06,0,0
1026.06,1,1
1026.07,0,1
1026.07,1,1
1026.07,1,1
1026.07,2,4
1026.07,5,2
1026.08,0,0
1026.08,0,2
1026.08,2,2
1026.08,2,2
1026.08,2,2
1026.08,0,0
1026.08,0,0
1026.09,0,0
1026.09,2,2
1026.09,2,3
1026.09,2,2
1026.09,3,3
1026.1,3,1
1026.1,1,1
1026.1,1,1
1026.1,2,2
1026.1,2,1
1026.1,1,0
1026.1,0,0
1026.11,1,1
1026.11,2,2
1026.11,2,3
1026.11,2,2
1026.11,2,2
1026.12,1,0
1026.12,0,0
1026.12,1,1
1026.12,1,1
1026.13,1,1
1026.13,1,1
1026.13,1,1
1026.13,1,2
1026.13,2,2
1026.13,2,3
1026.13,3,3
1026.14,3,2
1026.14,2,1
1026.14,1,1
1026.14,1,0
1026.14,0,0
1026.15,1,2
1026.15,2,2
1026.15,2,1
1026.15,0,0
1026.15,3,7
1026.15,6,2
1026.15,1,0
1026.16,0,0
1026.16,0,0
1026.16,1,1
1026.16,1,1
1026.16,2,2
1026.17,1,1
1026.17,1,1
1026.17,2,2
1026.17,2,2
1026.17,2,2
1026.17,2,2
1026.17,2,2
1026.18,2,1
1026.18,0,0
1026.18,1,2
1026.18,3,3
1026.18,3,1
1026.19,0,1
1026.19,2,2
1026.19,2,2
1026.19,1,1
1026.19,0,0
1026.19,0,1
1026.19,1,2
1026.2,2,2
1026.2,2,2
1026.2,2,2
1026.2,1,1
1026.21,1,1
1026.21,2,2
1026.21,2,3
1026.21,2,2
1026.21,3,3
1026.22,1,1
1026.22,1,0
1026.22,0,0
1026.22,1,1
1026.22,1,0
1026.22,0,1
1026.22,2,3
1026.23,3,3
1026.23,3,3
1026.23,1,1
1026.23,1,1
1026.23,1,3
1026.24,4,3
1026.24,2,0
1026.24,0,0
1026.24,0,1
1026.24,1,2
1026.24,2,2
1026.24,2,2
1026.25,3,2
1026.25,2,1
1026.25,1,1
1026.25,1,0
1026.26,0,1
1026.26,1,1
1026.26,1,1
1026.26,1,1
1026.26,1,2
1026.26,3,4
1026.26,3,3
1026.27,2,1
1026.27,0,0
1026.27,1,0
1026.27,0,0
1026.27,0,1
1026.28,1,2
1026.28,3,3
1026.28,4,1
1026.28,0,0
1026.28,1,2
1026.28,2,3
1026.28,2,2
1026.29,1,1
1026.29,0,1
1026.29,2,2
1026.29,3,2
1026.29,2,1
1026.3,2,2
1026.3,2,2
1026.3,1,0
1026.3,0,0
1026.3,0,0
1026.31,1,2
1026.31,5,7
1026.31,6,2
1026.31,0,-1
1026.31,0,0
1026.31,1,1
1026.31,1,1
1026.32,0,1
1026.32,1,2
1026.32,3,2
1026.32,1,1
1026.33,1,0
1026.33,1,1
1026.33,1,1
1026.33,1,1
1026.33,1,2
1026.33,2,2
1026.33,2,3
1026.34,4,4
1026.34,2,0
1026.34,1,1
1026.34,1,1
1026.34,1,1
1026.35,0,0
1026.35,0,2
1026.35,2,2
1026.35,2,2
1026.35,2,2
1026.35,1,1
1026.35,2,2
1026.36,1,0
1026.36,1,1
1026.36,2,4
1026.36,4,1
1026.36,0,1
1026.37,2,2
1026.37,2,1
1026.37,2,2
1026.37,2,1
1026.37,0,0
1026.38,0,0
1026.38,1,1
1026.38,1,1
1026.38,1,1
1026.38,2,2
1026.38,2,2
1026.38,3,3
1026.39,5,4
1026.39,3,1
1026.39,0,0
1026.39,1,1
1026.4,2,1
1026.4,0,0
1026.4,0,0
1026.4,0,0
1026.4,1,2
1026.4,3,3
1026.4,3,3
1026.41,2,2
1026.41,1,1
1026.41,1,1
1026.41,2,2
1026.41,3,4
1026.42,2,2
1026.42,1,1
1026.42,1,0
1026.42,0,0
1026.42,0,1
1026.42,1,1
1026.42,1,2
1026.43,2,2
1026.43,2,2
1026.43,1,1
1026.43,2,2
1026.43,2,2
1026.44,2,2
1026.44,2,1
1026.44,1,1
1026.44,1,1
1026.44,2,2
1026.44,2,2
1026.44,1,1
1026.45,1,2
1026.45,2,3
1026.45,2,2
1026.45,2,0
1026.45,0,0
1026.46,0,0
1026.46,1,3
1026.46,6,4
1026.46,0,-1
1026.47,0,1
1026.47,2,4
1026.47,4,5
1026.47,3,1
1026.47,0,0
1026.47,0,0
1026.47,0,0
1026.48,1,1
1026.48,2,2
1026.48,2,2
1026.48,1,1
1026.48,1,1
1026.49,2,2
1026.49,3,2
1026.49,2,2
1026.49,2,1
1026.49,0,0
1026.49,0,1
1026.49,2,4
1026.5,4,4
1026.5,3,2
1026.5,1,1
1026.5,0,0
1026.5,0,0
1026.51,1,2
1026.51,2,2
1026.51,2,2
1026.51,2,2
1026.51,2,2
1026.51,1,1
1026.51,1,1
1026.52,1,1
1026.52,1,1
1026.52,1,1
1026.52,1,1
1026.53,1,0
1026.53,1,1
1026.53,1,2
1026.53,2,2
1026.53,2,2
1026.53,2,2
1026.53,2,2
1026.53,1,1
1026.54,0,0
1026.54,1,1
1026.54,1,2
1026.54,3,4
1026.55,5,2
1026.55,1,0
1026.55,0,0
1026.55,1,1
1026.55,1,1
1026.56,1,1
1026.56,1,2
1026.56,2,2
1026.56,1,1
1026.56,1,2
1026.56,2,2
1026.56,1,1
1026.57,1,1
1026.57,2,2
1026.57,2,1
1026.57,1,2
1026.57,3,4
1026.58,5,1
1026.58,0,0
1026.58,0,0
1026.58,0,0
1026.58,1,2
1026.58,3,2
1026.58,2,2
1026.59,1,1
1026.59,1,1
1026.59,2,1
1026.59,1,0
1026.6,0,1
1026.6,1,1
1026.6,1,2
1026.6,2,2
1026.6,2,2
1026.6,3,2
1026.6,2,2
1026.61,1,0
1026.61,0,0
1026.61,0,1
1026.61,2,2
1026.61,2,2
1026.62,2,1
1026.62,1,1
1026.62,1,1
1026.62,1,1
1026.62,0,1
1026.62,1,2
1026.62,4,5
1026.63,5,3
1026.63,2,2
1026.63,1,1
1026.63,1,1
1026.63,1,0
1026.64,-1,0
1026.64,0,1
1026.64,2,4
1026.64,5,3
1026.64,1,0
1026.65,0,0
1026.65,1,2
1026.65,2,2
1026.65,1,1
1026.65,2,3
1026.65,2,2
1026.65,1,1
1026.66,1,1
1026.66,1,1
1026.66,0,1
1026.66,1,2
1026.67,2,2
1026.67,2,2
1026.67,2,2
1026.67,2,1
1026.67,1,1
1026.67,3,3
1026.67,2,1
1026.68,0,1
1026.68,1,1
1026.68,0,1
1026.68,1,1
1026.68,2,4
1026.69,3,2
1026.69,1,1
1026.69,1,0
1026.69,0,0
1026.69,1,2
1026.69,2,2
1026.69,2,2
1026.7,2,2
1026.7,2,1
1026.7,1,1
1026.7,1,1
1026.7,1,1
1026.71,1,1
1026.71,1,0
1026.71,1,1
1026.71,1,1
1026.71,1,1
1026.71,0,1
1026.72,2,3
1026.72,3,3
1026.72,3,2
1026.72,2,1
1026.72,1,1
1026.72,0,1
1026.73,2,2
1026.73,2,1
1026.73,1,1
1026.73,0,0
1026.74,0,1
1026.74,1,2
1026.74,2,2
1026.74,2,2
1026.74,2,2
1026.74,3,2
1026.74,0,0
1026.75,1,2
1026.75,1,2
1026.75,2,3
1026.75,2,1
1026.75,1,1
1026.76,1,1
1026.76,1,0
1026.76,0,1
1026.76,1,2
1026.76,3,2
1026.76,2,1
1026.76,1,1
1026.77,1,1
1026.77,1,1
1026.77,1,1
1026.77,1,1
1026.77,1,1
1026.78,1,1
1026.78,1,1
1026.78,1,0
1026.78,1,1
1026.78,1,1
1026.78,2,3
1026.78,4,2
1026.79,1,1
1026.79,1,1
1026.79,1,1
1026.79,1,0
1026.8,1,1
1026.8,1,2
1026.8,2,3
1026.8,2,0
1026.8,0,0
1026.81,0,0
1026.81,1,2
1026.81,4,4
1026.81,5,3
1026.81,2,1
1026.81,1,0
1026.81,0,0
1026.82,0,1
1026.82,1,2
1026.82,2,2
1026.82,2,2
1026.82,2,2
1026.83,2,1
1026.83,1,0
1026.83,0,2
1026.83,3,4
1026.83,3,3
1026.83,2,0
1026.83,0,-1
1026.84,0,1
1026.84,2,3
1026.84,3,3
1026.84,2,1
1026.84,0,0
1026.85,0,1
1026.85,1,2
1026.85,2,1
1026.85,1,2
1026.85,3,3
1026.85,2,2
1026.85,1,1
1026.86,1,0
1026.86,0,1
1026.86,1,1
1026.86,1,0
1026.87,1,1
1026.87,1,2
1026.87,2,2
1026.87,2,2
1026.87,1,1
1026.87,2,2
1026.87,2,2
1026.88,2,2
1026.88,2,1
1026.88,1,1
1026.88,1,1
1026.88,1,2
1026.89,1,1
1026.89,1,1
1026.89,2,2
1026.89,3,4
1026.89,3,1
1026.9,0,0
1026.9,1,3
1026.9,2,1
1026.9,0,0
1026.9,1,1
1026.9,2,2
1026.9,2,2
1026.91,1,1
1026.91,1,2
1026.91,2,2
1026.91,2,2
1026.91,2,2
1026.92,2,1
1026.92,1,1
1026.92,1,2
1026.92,2,2
1026.92,1,1
1026.92,1,1
1026.92,1,0
1026.93,0,1
1026.93,2,3
1026.93,2,2
1026.93,1,1
1026.94,1,1
1026.94,1,1
1026.94,1,1
1026.94,1,2
1026.94,2,2
1026.94,1,1
1026.94,0,0
1026.95,0,0
1026.95,1,2
1026.95,2,2
1026.95,3,2
1026.95,2,1
1026.96,1,2
1026.96,2,1
1026.96,1,1
1026.96,1,2
1026.96,2,2
1026.96,2,2
1026.96,1,1
1026.97,2,2
1026.97,2,2
1026.97,2,2
1026.97,1,1
1026.97,1,2
1026.98,3,4
1026.98,4,2
1026.98,0,0
1026.98,0,0
1026.99,0,0
1026.99,1,2
1026.99,2,2
1026.99,2,2
1026.99,2,2
1026.99,2,1
1026.99,1,1
1026.99,2,2
1027,2,1
1027,1,0
1027,0,2
1027,2,3
1027.01,3,3
1027.01,2,1
1027.01,1,1
1027.01,1,1
1027.01,1,1
1027.01,2,3
1027.01,3,1
1027.02,1,1
1027.02,1,2
1027.02,2,2
1027.02,1,0
1027.02,0,1
1027.03,1,1
1027.03,1,0
1027.03,1,1
1027.03,1,2
1027.03,2,2
1027.03,1,1
1027.03,1,1
1027.04,1,1
1027.04,1,2
1027.04,3,3
1027.04,3,2
1027.04,1,0
1027.05,1,1
1027.05,1,1
1027.05,0,1
1027.05,1,0
1027.05,0,1
1027.05,2,2
1027.05,1,0
1027.06,0,1
1027.06,2,5
1027.06,5,4
1027.06,1,0
1027.07,0,1
1027.07,3,3
1027.07,2,1
1027.07,1,1
1027.07,1,1
1027.08,1,1
1027.08,1,1
1027.08,0,0
1027.08,0,0
1027.08,1,1
1027.08,2,2
1027.08,2,2
1027.09,2,2
1027.09,1,2
1027.09,3,2
1027.09,2,2
1027.09,1,1
1027.1,1,1
1027.1,0,0
1027.1,1,1
1027.1,1,1
1027.1,0,0
1027.1,2,2
1027.1,3,3
1027.11,3,2
1027.11,2,1
1027.11,1,0
1027.11,2,1
1027.11,2,2
1027.12,2,1
1027.12,1,1
1027.12,0,0
1027.12,0,1
1027.12,2,2
1027.12,2,1
1027.12,1,0
1027.13,0,1
1027.13,3,4
1027.13,4,5
1027.13,3,0
1027.14,-2,-2
1027.14,0,1
1027.14,2,1
1027.14,1,1
1027.14,2,4
1027.15,4,3
1027.15,1,0
1027.15,0,0
1027.15,1,1
1027.15,2,2
1027.15,2,2
1027.15,1,1
1027.16,2,3
1027.16,3,2
1027.16,1,1
1027.16,0,0
1027.16,0,0
1027.17,0,1
1027.17,2,2
1027.17,2,2
1027.17,2,2
1027.17,2,2
1027.17,3,2
1027.17,3,2
1027.18,1,0
1027.18,0,0
1027.18,0,1
1027.18,1,1
1027.18,1,1
1027.19,1,2
1027.19,2,2
1027.19,2,2
1027.19,1,1
1027.19,2,3
1027.19,3,2
1027.19,2,1
1027.2,1,1
1027.2,1,1
1027.2,1,1
1027.2,1,0
1027.21,0,1
1027.21,1,2
1027.21,2,3
1027.21,2,2
1027.21,1,0
1027.21,0,1
1027.21,1,1
1027.22,2,2
1027.22,2,2
1027.22,2,2
1027.22,2,1
1027.22,1,2
1027.23,2,2
1027.23,1,1
1027.23,0,0
1027.23,2,4
1027.23,5,2
1027.24,0,1
1027.24,1,0
1027.24,0,1
1027.24,2,3
1027.24,2,1
1027.24,0,1
1027.24,1,1
1027.25,1,2
1027.25,1,0
1027.25,0,1
1027.25,2,3
1027.26,4,3
1027.26,2,2
1027.26,1,1
1027.26,1,1
1027.26,1,1
1027.26,1,0
1027.26,0,1
1027.26,1,1
1027.27,1,1
1027.27,1,1
1027.27,1,2
1027.27,2,2
1027.28,2,2
1027.28,3,2
1027.28,3,3
1027.28,2,1
1027.28,1,1
1027.28,1,1
1027.28,0,0
1027.29,0,0
1027.29,0,1
1027.29,2,3
1027.29,3,2
1027.29,0,1
1027.3,1,1
1027.3,1,2
1027.3,2,1
1027.3,1,1
1027.3,1,2
1027.3,3,3
1027.3,2,2
1027.31,2,1
1027.31,1,1
1027.31,1,0
1027.31,0,0
1027.31,2,3
1027.32,4,5
1027.32,4,1
1027.32,0,-1
1027.32,-1,0
1027.33,1,1
1027.33,2,2
1027.33,3,3
1027.33,2,1
1027.33,1,1
1027.33,1,0
1027.33,1,1
1027.34,2,2
1027.34,2,2
1027.34,2,2
1027.34,2,1
1027.34,1,1
1027.35,1,1
1027.35,0,1
1027.35,1,1
1027.35,1,1
1027.35,1,2
1027.35,2,2
1027.35,2,2
1027.36,3,3
1027.36,3,2
1027.36,1,0
1027.36,0,0
1027.36,0,0
1027.37,0,1
1027.37,1,2
1027.37,2,2
1027.37,2,3
1027.37,4,4
1027.37,2,2
1027.37,1,1
1027.38,1,1
1027.38,1,1
1027.38,1,1
1027.38,1,1
1027.38,1,0
1027.39,0,1
1027.39,1,1
1027.39,1,2
1027.39,3,2
1027.39,1,1
1027.39,2,2
1027.39,1,0
1027.4,1,1
1027.4,3,5
1027.4,4,2
1027.4,1,0
1027.41,0,0
1027.41,0,1
1027.41,0,0
1027.41,1,2
1027.41,3,3
1027.42,3,2
1027.42,2,1
1027.42,1,1
1027.42,2,2
1027.42,2,1
1027.42,2,1
1027.42,1,2
1027.43,2,2
1027.43,2,2
1027.43,2,1
1027.43,1,1
1027.43,2,2
1027.44,2,2
1027.44,2,2
1027.44,1,1
1027.44,1,2
1027.44,2,2
1027.44,2,2
1027.44,1,1
1027.45,1,1
1027.45,2,2
1027.45,2,2
1027.45,2,1
1027.46,1,1
1027.46,2,2
1027.46,2,1
1027.46,1,1
1027.46,1,2
1027.46,3,3
1027.46,1,0
1027.46,0,0
1027.47,2,2
1027.47,3,4
1027.47,3,1
1027.47,0,1
1027.48,1,1
1027.48,1,1
1027.48,0,1
1027.48,1,0
1027.48,0,0
1027.48,0,1
1027.48,2,4
1027.49,6,7
1027.49,5,2
1027.49,0,0
1027.49,1,1
1027.49,1,1
1027.5,1,1
1027.5,1,1
1027.5,1,2
1027.5,2,2
1027.5,1,0
1027.51,0,0
1027.51,0,0
1027.51,0,1
1027.51,2,3
1027.51,4,3
1027.51,3,2
1027.51,1,1
1027.52,1,1
1027.52,1,1
1027.52,1,0
1027.52,0,1
1027.53,1,1
1027.53,1,1
1027.53,1,2
1027.53,1,1
1027.53,0,2
1027.53,3,3
1027.53,3,2
1027.54,2,2
1027.54,2,1
1027.54,1,1
1027.54,1,2
1027.54,2,3
1027.55,2,2
1027.55,0,0
1027.55,1,1
1027.55,2,2
1027.55,2,2
1027.55,2,1
1027.55,0,0
1027.56,0,0
1027.56,2,2
1027.56,1,1
1027.56,1,1
1027.56,1,2
1027.57,2,1
1027.57,1,1
1027.57,1,1
1027.57,0,1
1027.57,4,6
1027.58,6,3
1027.58,0,0
1027.58,0,0
1027.58,1,1
1027.58,2,2
1027.58,2,3
1027.58,2,2
1027.59,1,1
1027.59,1,0
1027.59,0,1
1027.59,1,1
1027.6,1,1
1027.6,0,1
1027.6,1,1
1027.6,1,2
1027.6,3,5
1027.6,4,3
1027.6,1,0
1027.61,1,0
1027.61,0,0
1027.61,0,0
1027.61,1,2
1027.61,2,2
1027.62,2,2
1027.62,2,2
1027.62,2,2
1027.62,2,2
1027.62,1,1
1027.62,1,1
1027.62,2,1
1027.63,1,1
1027.63,1,1
1027.63,2,2
1027.63,2,2
1027.63,2,2
1027.64,1,1
1027.64,1,1
1027.64,1,2
1027.64,2,2
1027.64,2,2
1027.64,3,2
1027.64,2,1
1027.65,1,1
1027.65,1,1
1027.65,1,1
1027.65,0,0
1027.65,1,1
1027.66,1,2
1027.66,2,2
1027.66,2,2
1027.66,2,1
1027.67,1,0
1027.67,0,1
1027.67,2,4
1027.67,4,1
1027.67,0,1
1027.67,2,2
1027.67,3,2
1027.68,0,0
1027.68,0,1
1027.68,1,1
1027.68,0,1
1027.68,1,1
1027.69,2,2
1027.69,2,2
1027.69,2,2
1027.69,2,1
1027.69,1,1
1027.69,2,3
1027.69,3,0
1027.7,0,0
1027.7,1,2
1027.7,2,2
1027.7,2,2
1027.7,3,2
1027.71,2,1
1027.71,1,0
1027.71,0,0
1027.71,0,1
1027.71,2,2
1027.71,3,3
1027.71,2,1
1027.72,1,2
1027.72,2,2
1027.72,1,0
1027.72,1,1
1027.73,2,2
1027.73,1,1
1027.73,0,0
1027.73,0,2
1027.73,2,1
1027.73,1,1
1027.73,1,1
1027.73,1,2
1027.74,2,1
1027.74,0,0
1027.74,1,1
1027.74,1,2
1027.75,2,2
1027.75,2,2
1027.75,2,2
1027.75,1,1
1027.75,0,1
1027.76,2,6
1027.76,5,2
1027.76,0,0
1027.76,0,0
1027.76,0,1
1027.76,1,2
1027.76,2,2
1027.77,2,2
1027.77,2,2
1027.77,2,2
1027.77,1,1
1027.77,1,1
1027.78,1,1
1027.78,2,2
1027.78,2,2
1027.78,2,3
1027.78,2,1
1027.78,0,0
1027.78,1,0
1027.79,0,1
1027.79,1,2
1027.79,3,3
1027.79,3,1
1027.8,1,0
1027.8,1,0
1027.8,0,1
1027.8,1,2
1027.8,2,3
1027.8,3,2
1027.8,1,1
1027.81,1,1
1027.81,1,2
1027.81,3,2
1027.81,1,0
1027.81,0,1
1027.82,1,2
1027.82,3,3
1027.82,3,2
1027.82,1,0
1027.82,0,0
1027.82,1,1
1027.82,1,1
1027.83,1,1
1027.83,2,2
1027.83,2,2
1027.83,1,1
1027.83,1,2
1027.84,2,1
1027.84,0,0
1027.84,2,5
1027.84,5,3
1027.84,1,0
1027.85,0,1
1027.85,1,1
1027.85,1,1
1027.85,1,1
1027.85,1,1
1027.85,1,1
1027.85,1,1
1027.86,1,1
1027.86,1,1
1027.86,0,0
1027.86,0,0
1027.87,1,2
1027.87,3,4
1027.87,4,3
1027.87,3,1
1027.87,1,1
1027.87,1,0
1027.87,1,1
1027.88,1,1
1027.88,1,2
1027.88,2,2
1027.88,2,2
1027.88,2,2
1027.89,1,1
1027.89,1,1
1027.89,1,1
1027.89,1,2
1027.89,2,2
1027.89,2,2
1027.89,1,1
1027.9,1,1
1027.9,2,2
1027.9,2,2
1027.9,2,2
1027.9,2,1
1027.91,1,1
1027.91,1,2
1027.91,2,2
1027.91,2,2
1027.92,1,1
1027.92,2,3
1027.92,2,3
1027.92,3,2
1027.92,1,1
1027.92,1,0
1027.92,0,0
1027.92,0,1
1027.93,1,0
1027.93,1,1
1027.93,2,2
1027.93,2,2
1027.94,2,1
1027.94,1,1
1027.94,2,5
1027.94,4,3
1027.94,1,0
1027.94,0,0
1027.94,0,1
1027.95,1,1
1027.95,1,1
1027.95,1,1
1027.95,1,1
1027.95,0,1
1027.96,1,0
1027.96,1,1
1027.96,1,2
1027.96,2,2
1027.96,2,2
1027.96,2,2
1027.96,1,1
1027.97,2,2
1027.97,2,2
1027.97,2,2
1027.97,1,1
1027.97,1,1
1027.98,1,1
1027.98,2,2
1027.98,2,2
1027.98,2,2
1027.98,2,2
1027.98,1,1
1027.98,0,2
1027.99,2,1
1027.99,1,1
1027.99,1,1
1027.99,2,3
1028,3,2
1028,2,1
1028,0,0
1028,1,2
1028,2,2
1028.01,2,2
1028.01,2,1
1028.01,1,1
1028.01,0,2
1028.01,2,1
1028.01,1,1
1028.01,1,1
1028.02,1,1
1028.02,1,1
1028.02,0,1
1028.02,0,1
1028.02,2,3
1028.03,4,3
1028.03,3,1
1028.03,0,0
1028.03,0,1
1028.03,2,2
1028.03,3,2
1028.03,2,2
1028.04,1,0
1028.04,0,0
1028.04,2,2
1028.04,2,1
1028.04,1,1
1028.05,1,1
1028.05,3,3
1028.05,3,2
1028.05,1,0
1028.05,0,1
1028.05,2,2
1028.05,2,1
1028.06,1,1
1028.06,0,1
1028.06,1,1
1028.06,1,1
1028.07,2,2
1028.07,2,2
1028.07,2,2
1028.07,2,2
1028.07,1,1
1028.07,2,2
1028.07,2,2
1028.08,2,2
1028.08,1,1
1028.08,1,1
1028.08,1,1
1028.08,1,1
1028.09,1,0
1028.09,1,1
1028.09,2,3
1028.09,3,2
1028.09,1,0
1028.1,0,0
1028.1,1,1
1028.1,2,3
1028.1,2,1
1028.1,0,1
1028.1,2,2
1028.1,2,2
1028.11,1,0
1028.11,0,0
1028.11,2,5
1028.11,5,2
1028.11,0,0
1028.12,0,1
1028.12,1,1
1028.12,1,1
1028.12,2,2
1028.12,2,1
1028.12,1,2
1028.12,3,3
1028.13,2,0
1028.13,0,0
1028.13,0,2
1028.13,2,2
1028.14,1,2
1028.14,2,2
1028.14,2,2
1028.14,2,2
1028.14,2,1
1028.14,1,1
1028.14,1,1
1028.15,2,2
1028.15,1,1
1028.15,0,0
1028.15,0,1
1028.15,1,2
1028.16,2,3
1028.16,2,2
1028.16,1,0
1028.16,0,0
1028.16,0,0
1028.16,1,2
1028.16,3,4
1028.17,4,4
1028.17,2,2
1028.17,1,0
1028.17,0,0
1028.17,1,2
1028.18,2,2
1028.18,1,1
1028.18,1,1
1028.18,1,0
1028.19,1,1
1028.19,1,1
1028.19,2,2
1028.19,1,1
1028.19,2,2
1028.19,2,2
1028.19,2,1
1028.19,0,0
1028.2,1,2
1028.2,4,5
1028.2,4,1
1028.2,0,0
1028.21,0,0
1028.21,1,1
1028.21,1,2
1028.21,2,2
1028.21,2,2
1028.21,2,2
1028.21,2,2
1028.22,2,1
1028.22,1,1
1028.22,1,0
1028.22,0,1
1028.22,2,3
1028.23,4,3
1028.23,2,1
1028.23,1,2
1028.23,1,0
1028.23,-1,0
1028.23,1,3
1028.23,4,2
1028.24,1,0
1028.24,0,1
1028.24,1,1
1028.24,1,1
1028.24,1,2
1028.25,2,3
1028.25,3,2
1028.25,1,1
1028.25,0,1
1028.26,1,1
1028.26,1,1
1028.26,1,1
1028.26,2,2
1028.26,2,1
1028.26,1,1
1028.26,2,4
1028.27,3,1
1028.27,1,1
1028.27,1,1
1028.27,0,0
1028.27,1,1
1028.28,1,1
1028.28,2,2
1028.28,1,2
1028.28,2,2
1028.28,3,2
1028.28,2,1
1028.28,1,0
1028.29,0,1
1028.29,1,2
1028.29,2,2
1028.29,1,0
1028.29,0,0
1028.3,0,1
1028.3,2,4
1028.3,4,3
1028.3,1,0
1028.3,0,0
1028.3,1,1
1028.3,1,1
1028.31,2,2
1028.31,2,2
1028.31,2,1
1028.31,1,1
1028.31,2,2
1028.32,1,1
1028.32,1,1
1028.32,1,1
1028.32,2,2
1028.32,3,4
1028.32,3,2
1028.32,1,0
1028.33,0,0
1028.33,0,0
1028.33,2,3
1028.33,3,2
1028.34,1,0
1028.34,1,1
1028.34,2,2
1028.34,2,2
1028.34,3,2
1028.35,2,2
1028.35,1,0
1028.35,0,1
1028.35,0,1
1028.35,0,0
1028.35,1,1
1028.35,1,1
1028.36,1,2
1028.36,3,3
1028.36,3,2
1028.36,2,2
1028.36,1,1
1028.37,1,1
1028.37,1,1
1028.37,1,1
1028.37,1,1
1028.37,1,1
1028.37,1,1
1028.37,1,0
1028.38,1,2
1028.38,3,2
1028.38,2,1
1028.38,2,1
1028.38,1,1
1028.39,0,0
1028.39,0,0
1028.39,2,3
1028.39,3,3
1028.39,1,1
1028.39,1,0
1028.39,0,1
1028.4,2,3
1028.4,4,3
1028.4,3,2
1028.4,1,0
1028.41,0,0
1028.41,0,1
1028.41,2,2
1028.41,2,2
1028.41,1,1
1028.41,1,1
1028.41,2,2
1028.42,2,2
1028.42,1,2
1028.42,2,2
1028.42,2,1
1028.42,1,0
1028.43,0,1
1028.43,2,3
1028.43,4,3
1028.43,2,1
1028.43,0,0
1028.44,0,1
1028.44,2,2
1028.44,2,1
1028.44,1,1
1028.44,1,1
1028.44,1,1
1028.44,1,1
1028.45,2,2
1028.45,3,3
1028.45,2,2
1028.45,1,1
1028.46,1,0
1028.46,0,0
1028.46,0,1
1028.46,2,3
1028.46,3,4
1028.46,4,2
1028.46,1,0
1028.46,0,1
1028.47,1,1
1028.47,0,1
1028.47,1,2
1028.47,2,2
1028.48,2,2
1028.48,2,1
1028.48,1,1
1028.48,2,2
1028.48,1,1
1028.48,2,2
1028.48,2,1
1028.49,1,1
1028.49,1,1
1028.49,3,6
1028.49,6,3
1028.49,0,0
1028.5,-1,0
1028.5,0,1
1028.5,2,2
1028.5,1,0
1028.5,0,0
1028.5,0,1
1028.5,2,2
1028.51,2,3
1028.51,3,3
1028.51,3,1
1028.51,0,1
1028.51,2,2
1028.52,2,2
1028.52,1,1
1028.52,0,1
1028.52,1,2
1028.53,2,2
1028.53,2,2
1028.53,3,2
1028.53,1,1
1028.53,1,1
1028.53,0,0
1028.53,1,1
1028.54,1,1
1028.54,1,1
1028.54,1,0
1028.54,1,1
1028.54,1,1
1028.55,1,1
1028.55,0,1
1028.55,1,1
1028.55,2,2
1028.55,2,2
1028.55,2,1
1028.55,2,2
1028.56,2,2
1028.56,2,2
1028.56,1,2
1028.56,2,1
1028.56,1,0
1028.57,0,1
1028.57,1,2
1028.57,4,3
1028.57,2,1
1028.57,1,0
1028.57,-1,-1
1028.57,0,0
1028.58,2,5
1028.58,7,6
1028.58,4,1
1028.58,0,0
1028.58,0,0
1028.59,1,1
1028.59,2,3
1028.59,2,2
1028.59,1,1
1028.59,0,0
1028.6,1,1
1028.6,1,1
1028.6,1,1
1028.6,1,1
1028.6,2,2
1028.6,1,1
1028.61,2,2
1028.61,2,3
1028.61,3,2
1028.61,1,0
1028.61,0,1
1028.62,2,1
1028.62,1,2
1028.62,2,1
1028.62,1,2
1028.62,2,2
1028.62,1,1
1028.62,2,3
1028.63,2,2
1028.63,1,0
1028.63,0,0
1028.63,0,1
1028.63,2,2
1028.64,2,1
1028.64,1,1
1028.64,1,1
1028.64,2,3
1028.64,3,2
1028.64,2,1
1028.64,1,1
1028.65,1,2
1028.65,2,2
1028.65,1,0
1028.65,0,0
1028.65,0,1
1028.66,1,2
1028.66,2,2
1028.66,2,2
1028.66,2,2
1028.66,3,1
1028.66,1,1
1028.66,0,2
1028.67,1,1
1028.67,1,0
1028.67,0,1
1028.67,2,5
1028.68,5,3
1028.68,1,0
1028.68,0,0
1028.68,0,0
1028.68,0,1
1028.69,2,2
1028.69,2,3
1028.69,2,1
1028.69,0,0
1028.69,0,0
1028.69,1,1
1028.69,2,2
1028.7,2,2
1028.7,2,2
1028.7,2,2
1028.7,2,2
1028.7,2,1
1028.71,1,1
1028.71,0,0
1028.71,0,0
1028.71,2,2
1028.71,2,3
1028.71,4,3
1028.71,1,0
1028.72,0,0
1028.72,2,1
1028.72,1,1
1028.72,1,2
1028.73,2,3
1028.73,2,1
1028.73,1,0
1028.73,0,0
1028.73,0,0
1028.73,2,2
1028.73,2,2
1028.73,1,1
1028.74,1,2
1028.74,2,3
1028.74,2,2
1028.74,1,1
1028.75,1,1
1028.75,1,2
1028.75,3,3
1028.75,2,1
1028.75,1,0
1028.75,0,0
1028.75,0,1
1028.76,2,2
1028.76,2,1
1028.76,1,1
1028.76,2,3
1028.76,4,2
1028.77,1,1
1028.77,0,0
1028.77,0,1
1028.77,1,2
1028.77,2,2
1028.78,2,2
1028.78,2,1
1028.78,1,1
1028.78,1,1
1028.78,1,2
1028.78,2,1
1028.78,1,1
1028.79,1,2
1028.79,4,3
1028.79,2,1
1028.79,1,0
1028.8,1,1
1028.8,1,1
1028.8,1,0
1028.8,0,0
1028.8,1,1
1028.8,1,2
1028.8,3,3
1028.81,2,1
1028.81,2,2
1028.81,2,2
1028.81,2,1
1028.81,0,0
1028.82,1,1
1028.82,1,1
1028.82,1,0
1028.82,1,1
1028.82,1,1
1028.82,1,1
1028.82,1,2
1028.83,2,2
1028.83,3,3
1028.83,2,1
1028.83,1,1
1028.83,0,0
1028.84,1,2
1028.84,2,2
1028.84,2,1
1028.84,2,2
1028.84,2,2
1028.84,1,1
1028.84,1,0
1028.85,0,0
1028.85,0,2
1028.85,2,3
1028.85,3,2
1028.85,2,4
1028.86,4,2
1028.86,0,0
1028.86,0,0
1028.86,0,1
1028.87,1,1
1028.87,0,1
1028.87,1,1
1028.87,1,2
1028.87,3,3
1028.87,2,1
1028.87,0,1
1028.88,1,1
1028.88,1,1
1028.88,2,3
1028.88,3,2
1028.88,1,1
1028.89,1,0
1028.89,1,1
1028.89,1,1
1028.89,1,1
1028.89,1,1
1028.89,1,1
1028.89,1,2
1028.9,2,3
1028.9,3,3
1028.9,3,2
1028.9,0,0
1028.9,1,1
1028.91,1,1
1028.91,0,0
1028.91,1,1
1028.91,1,1
1028.91,1,1
1028.91,1,1
1028.91,1,2
1028.92,2,2
1028.92,2,2
1028.92,3,2
1028.92,2,1
1028.92,1,1
1028.93,2,2
1028.93,2,1
1028.93,1,1
1028.93,1,1
1028.93,2,2
1028.93,2,2
1028.93,2,1
1028.94,0,0
1028.94,1,1
1028.94,2,2
1028.94,3,4
1028.95,2,1
1028.95,1,0
1028.95,0,1
1028.95,1,1
1028.95,0,0
1028.96,2,4
1028.96,4,2
1028.96,2,1
1028.96,1,1
1028.96,0,0
1028.96,0,1
1028.96,1,1
1028.97,1,1
1028.97,2,2
1028.97,3,3
1028.97,1,1
1028.97,0,1
1028.98,1,1
1028.98,1,1
1028.98,2,2
1028.98,2,1
1028.98,1,1
1028.98,2,2
1028.98,1,1
1028.99,1,2
1028.99,2,3
1028.99,3,3
1028.99,2,1
1029,1,1
1029,1,1
1029,1,1
1029,0,0
1029,1,1
1029,1,2
1029,3,3
1029.01,2,1
1029.01,0,-1
1029.01,-1,0
1029.01,2,3
1029.01,4,3
1029.02,2,2
1029.02,1,2
1029.02,2,2
1029.02,2,1
1029.02,1,1
1029.03,1,1
1029.03,1,2
1029.03,2,2
1029.03,2,2
1029.03,3,1
1029.03,1,1
1029.03,1,1
1029.04,1,0
1029.04,0,0
1029.04,2,5
1029.04,4,3
1029.04,1,1
1029.05,1,1
1029.05,1,1
1029.05,1,0
1029.05,0,1
1029.05,1,2
1029.05,2,2
1029.05,2,3
1029.06,2,1
1029.06,1,1
1029.06,0,1
1029.06,1,2
1029.07,2,3
1029.07,2,1
1029.07,1,1
1029.07,0,0
1029.07,0,0
1029.07,2,2
1029.07,2,4
1029.08,4,2
1029.08,0,0
1029.08,0,1
1029.08,2,2
1029.08,3,2
1029.09,2,2
1029.09,1,1
1029.09,2,2
1029.09,1,0
1029.09,0,0
1029.09,1,1
1029.09,1,0
1029.1,0,1
1029.1,3,4
1029.1,4,2
1029.1,1,1
1029.1,1,0
1029.11,0,1
1029.11,2,2
1029.11,2,2
1029.11,1,1
1029.11,1,1
1029.12,0,0
1029.12,1,1
1029.12,2,2
1029.12,2,2
1029.12,2,1
1029.12,0,1
1029.12,2,4
1029.13,5,5
1029.13,3,0
1029.13,-1,-1
1029.13,-1,0
1029.14,1,2
1029.14,3,2
1029.14,2,2
1029.14,2,2
1029.14,2,2
1029.14,1,1
1029.14,1,1
1029.15,1,0
1029.15,1,1
1029.15,1,1
1029.15,1,1
1029.15,2,2
1029.16,3,3
1029.16,2,1
1029.16,1,1
1029.16,1,0
1029.16,0,0
1029.16,0,1
1029.16,2,2
1029.17,1,1
1029.17,2,2
1029.17,2,2
1029.17,3,2
1029.17,2,1
1029.18,1,1
1029.18,1,1
1029.18,0,0
1029.18,0,0
1029.18,1,2
1029.18,3,4
1029.18,3,2
1029.19,2,1
1029.19,1,0
1029.19,0,0
1029.19,1,2
1029.2,2,2
1029.2,2,2
1029.2,2,2
1029.2,2,2
1029.2,1,2
1029.21,2,2
1029.21,1,0
1029.21,0,0
1029.21,1,5
1029.21,6,5
1029.21,3,0
1029.21,0,-1
1029.22,0,0
1029.22,1,1
1029.22,0,1
1029.22,2,2
1029.22,2,1
1029.23,1,1
1029.23,1,2
1029.23,1,1
1029.23,1,2
1029.23,2,2
1029.23,2,2
1029.23,2,2
1029.24,2,2
1029.24,2,2
1029.24,1,1
1029.24,0,1
1029.24,1,2
1029.25,2,2
1029.25,2,1
1029.25,1,1
1029.25,1,2
1029.25,2,2
1029.25,2,2
1029.25,2,2
1029.26,2,1
1029.26,1,1
1029.26,1,1
1029.26,0,0
1029.27,0,1
1029.27,2,3
1029.27,3,2
1029.27,1,1
1029.27,1,1
1029.27,0,1
1029.27,1,1
1029.28,1,1
1029.28,2,2
1029.28,1,1
1029.28,2,2
1029.28,2,1
1029.29,0,0
1029.29,1,2
1029.29,3,3
1029.29,3,3
1029.29,4,2
1029.3,0,0
1029.3,0,-1
1029.3,-1,-1
1029.3,0,2
1029.3,4,6
1029.3,6,4
1029.3,0,-1
1029.31,0,1
1029.31,1,1
1029.31,1,1
1029.31,1,2
1029.31,3,3
1029.32,2,1
1029.32,0,0
1029.32,1,2
1029.32,4,3
1029.32,2,1
1029.32,1,0
1029.32,0,0
1029.33,2,2
1029.33,2,2
1029.33,1,1
1029.33,1,0
1029.34,0,1
1029.34,1,1
1029.34,1,0
1029.34,0,1
1029.34,1,1
1029.34,1,2
1029.34,2,2
1029.35,3,3
1029.35,2,2
1029.35,2,1
1029.35,1,1
1029.35,1,1
1029.36,1,1
1029.36,1,1
1029.36,0,1
1029.36,1,1
1029.36,1,2
1029.36,2,2
1029.36,1,2
1029.37,2,2
1029.37,2,2
1029.37,1,1
1029.37,1,1
1029.37,2,2
1029.38,2,2
1029.38,2,2
1029.38,2,1
1029.38,1,1
1029.39,1,1
1029.39,2,3
1029.39,4,2
1029.39,1,0
1029.39,0,0
1029.39,0,0
1029.39,2,3
1029.4,5,4
1029.4,3,2
1029.4,1,2
1029.4,1,0
1029.4,0,0
1029.41,1,1
1029.41,1,1
1029.41,1,2
1029.41,2,3
1029.41,3,2
1029.41,1,0
1029.41,0,1
1029.42,2,3
1029.42,3,3
1029.42,0,0
1029.42,1,2
1029.42,4,3
1029.43,1,0
1029.43,0,0
1029.43,2,2
1029.43,1,1
1029.43,1,1
1029.43,1,1
1029.43,2,2
1029.44,2,2
1029.44,2,2
1029.44,2,2
1029.44,2,1
1029.44,1,1
1029.45,1,1
1029.45,1,2
1029.45,2,2
1029.45,1,1
1029.46,1,2
1029.46,3,3
1029.46,2,2
1029.46,2,1
1029.46,0,1
1029.46,1,1
1029.46,1,1
1029.47,1,1
1029.47,1,1
1029.47,0,1
1029.47,1,1
1029.47,2,2
1029.48,2,1
1029.48,1,1
1029.48,1,1
1029.48,2,6
1029.48,6,3
1029.48,0,-1
1029.48,-1,0
1029.49,0,1
1029.49,2,2
1029.49,2,2
1029.49,2,2
1029.49,2,2
1029.5,2,1
1029.5,1,1
1029.5,2,2
1029.5,2,2
1029.5,3,2
