Program Time [s],data 0,data 1
1092.64,1,0
1092.64,0,0
1092.64,0,1
1092.65,3,3
1092.65,3,3
1092.65,1,1
1092.65,0,-1
1092.65,0,1
1092.66,4,7
1092.66,5,3
1092.66,0,0
1092.66,2,2
1092.66,2,3
1092.67,3,0
1092.67,0,0
1092.67,1,1
1092.67,1,1
1092.67,0,0
1092.67,0,0
1092.67,0,0
1092.68,2,3
1092.68,3,2
1092.68,2,1
1092.68,1,1
1092.69,1,1
1092.69,3,3
1092.69,2,2
1092.69,4,4
1092.69,3,3
1092.69,3,3
1092.69,0,0
1092.7,0,0
1092.7,0,0
1092.7,1,2
1092.7,3,2
1092.7,2,1
1092.71,1,0
1092.71,0,1
1092.71,1,1
1092.71,1,2
1092.71,2,2
1092.71,2,2
1092.71,3,2
1092.72,2,2
1092.72,2,1
1092.72,1,0
1092.72,0,0
1092.72,1,2
1092.73,2,2
1092.73,2,2
1092.73,1,2
1092.73,2,2
1092.73,2,1
1092.73,1,2
1092.73,2,3
1092.74,2,1
1092.74,1,1
1092.74,1,1
1092.74,2,2
1092.74,2,1
1092.75,1,1
1092.75,2,2
1092.75,2,2
1092.75,2,2
1092.76,2,2
1092.76,1,1
1092.76,1,0
1092.76,2,1
1092.76,2,1
1092.76,0,0
1092.76,0,1
1092.77,2,2
1092.77,2,2
1092.77,2,2
1092.77,1,2
1092.77,4,4
1092.78,3,1
1092.78,0,-1
1092.78,0,0
1092.78,2,4
1092.78,3,2
1092.78,0,0
1092.78,0,1
1092.79,5,4
1092.79,2,1
1092.79,0,0
1092.79,0,1
1092.79,2,3
1092.8,2,1
1092.8,1,0
1092.8,0,1
1092.8,4,3
1092.8,2,0
1092.8,0,0
1092.8,1,0
1092.81,0,1
1092.81,2,3
1092.81,2,3
1092.81,3,2
1092.81,1,0
1092.82,0,2
1092.82,2,2
1092.82,1,1
1092.82,3,3
1092.83,1,0
1092.83,-1,-1
1092.83,0,0
1092.83,1,3
1092.83,4,4
1092.83,4,3
1092.83,3,4
1092.84,3,2
1092.84,0,0
1092.84,0,0
1092.84,-1,0
1092.84,0,0
1092.85,0,1
1092.85,2,3
1092.85,3,4
1092.85,3,2
1092.85,1,1
1092.85,2,2
1092.85,3,2
1092.86,2,2
1092.86,2,2
1092.86,1,1
1092.86,0,0
1092.86,0,0
1092.87,1,2
1092.87,1,0
1092.87,0,2
1092.87,3,2
1092.87,1,1
1092.87,2,5
1092.87,6,5
1092.88,3,0
1092.88,-1,-2
1092.88,0,0
1092.88,1,1
1092.89,0,2
1092.89,3,2
1092.89,0,0
1092.89,1,1
1092.89,0,1
1092.89,2,2
1092.89,2,1
1092.9,0,1
1092.9,2,3
1092.9,4,2
1092.9,1,0
1092.9,1,1
1092.91,1,0
1092.91,0,0
1092.91,1,1
1092.91,1,3
1092.91,5,4
1092.92,3,3
1092.92,3,3
1092.92,1,0
1092.92,0,0
1092.92,0,1
1092.92,1,1
1092.92,1,1
1092.93,0,0
1092.93,1,0
1092.93,1,1
1092.93,2,3
1092.93,3,3
1092.94,2,1
1092.94,1,1
1092.94,1,1
1092.94,1,1
1092.94,0,1
1092.94,1,1
1092.94,1,1
1092.95,2,2
1092.95,2,2
1092.95,2,2
1092.95,2,2
1092.96,2,2
1092.96,1,1
1092.96,2,2
1092.96,3,2
1092.96,1,1
1092.96,1,0
1092.96,0,1
1092.97,1,2
1092.97,2,2
1092.97,2,2
1092.97,2,2
1092.97,2,1
1092.98,1,2
1092.98,1,1
1092.98,1,1
1092.98,2,2
1092.98,2,1
1092.98,1,1
1092.98,1,0
1092.99,0,1
1092.99,0,0
1092.99,1,1
1092.99,1,2
1092.99,2,2
1093,2,2
1093,2,2
1093,2,2
1093,2,2
1093.01,2,1
1093.01,1,1
1093.01,1,2
1093.01,2,2
1093.01,2,2
1093.01,2,2
1093.01,1,1
1093.01,1,1
1093.02,1,1
1093.02,1,1
1093.02,1,1
1093.02,0,1
1093.03,1,1
1093.03,2,2
1093.03,2,2
1093.03,2,2
1093.03,1,1
1093.03,2,2
1093.03,2,2
1093.04,2,2
1093.04,2,1
1093.04,2,2
1093.04,1,0
1093.04,0,1
1093.05,1,1
1093.05,1,1
1093.05,2,2
1093.05,2,2
1093.05,2,2
1093.05,2,2
1093.05,1,2
1093.06,2,2
1093.06,2,1
1093.06,1,1
1093.06,0,1
1093.06,1,2
1093.07,3,2
1093.07,1,1
1093.07,2,1
1093.07,1,1
1093.08,1,1
1093.08,0,0
1093.08,1,2
1093.08,2,1
1093.08,1,2
1093.08,2,3
1093.08,2,1
1093.09,1,1
1093.09,1,0
1093.09,1,1
1093.09,1,2
1093.09,2,2
1093.1,2,2
1093.1,2,2
1093.1,2,2
1093.1,1,1
1093.1,1,1
1093.1,1,2
1093.1,2,2
1093.11,2,2
1093.11,1,2
1093.11,2,3
1093.11,2,1
1093.11,1,1
1093.12,1,0
1093.12,0,1
1093.12,2,2
1093.12,2,2
1093.12,2,1
1093.12,1,1
1093.12,1,1
1093.13,1,1
1093.13,0,1
1093.13,0,1
1093.13,1,2
1093.13,2,2
1093.14,2,2
1093.14,3,2
1093.14,1,1
1093.14,2,2
1093.14,1,1
1093.14,1,1
1093.14,1,1
1093.15,1,2
1093.15,1,1
1093.15,1,1
1093.15,1,0
1093.16,0,1
1093.16,1,1
1093.16,2,3
1093.16,3,1
1093.16,1,1
1093.16,2,2
1093.16,2,2
1093.17,2,2
1093.17,1,1
1093.17,1,1
1093.17,1,1
1093.17,1,1
1093.18,1,1
1093.18,1,1
1093.18,1,2
1093.18,2,3
1093.18,3,3
1093.19,2,1
1093.19,1,1
1093.19,0,1
1093.19,1,1
1093.19,1,2
1093.19,2,2
1093.19,2,1
1093.2,1,1
1093.2,1,1
1093.2,2,2
1093.2,2,2
1093.21,2,2
1093.21,2,2
1093.21,1,1
1093.21,1,0
1093.21,0,0
1093.21,1,2
1093.21,2,2
1093.21,2,2
1093.22,2,2
1093.22,2,2
1093.22,2,1
1093.22,1,1
1093.23,0,1
1093.23,1,1
1093.23,1,1
1093.23,1,1
1093.23,1,2
1093.23,4,4
1093.23,3,2
1093.24,0,0
1093.24,1,0
1093.24,0,0
1093.24,2,2
1093.24,2,1
1093.25,1,2
1093.25,1,0
1093.25,0,0
1093.25,0,0
1093.25,2,3
1093.26,2,2
1093.26,2,2
1093.26,2,2
1093.26,1,1
1093.26,1,2
1093.26,2,2
1093.26,2,3
1093.27,2,1
1093.27,0,0
1093.27,1,1
1093.27,1,1
1093.28,1,1
1093.28,0,0
1093.28,0,0
1093.28,2,3
1093.28,4,3
1093.28,2,1
1093.28,0,1
1093.29,2,2
1093.29,1,0
1093.29,0,0
1093.29,1,1
1093.29,1,2
1093.3,2,2
1093.3,3,2
1093.3,2,2
1093.3,2,1
1093.3,0,0
1093.3,0,0
1093.3,0,1
1093.31,2,3
1093.31,3,3
1093.31,3,3
1093.31,2,1
1093.31,1,1
1093.32,1,1
1093.32,1,2
1093.32,2,2
1093.32,1,1
1093.32,1,2
1093.32,2,2
1093.32,1,0
1093.33,0,0
1093.33,2,4
1093.33,6,5
1093.33,4,2
1093.33,0,-1
1093.34,-1,-2
1093.34,-1,1
1093.34,3,4
1093.34,5,3
1093.35,2,1
1093.35,0,0
1093.35,0,1
1093.35,1,1
1093.35,1,1
1093.35,1,2
1093.35,2,2
1093.36,2,1
1093.36,1,2
1093.36,2,3
1093.36,2,1
1093.36,1,1
1093.37,1,0
1093.37,0,1
1093.37,2,2
1093.37,2,1
1093.37,1,1
1093.37,1,1
1093.37,2,2
1093.38,2,2
1093.38,2,2
1093.38,2,1
1093.38,1,1
1093.38,1,2
1093.39,4,3
1093.39,2,1
1093.39,0,0
1093.39,0,1
1093.39,2,2
1093.39,2,2
1093.39,1,1
1093.4,1,1
1093.4,1,1
1093.4,1,1
1093.4,0,1
1093.4,1,1
1093.41,2,2
1093.41,2,2
1093.41,2,2
1093.41,3,2
1093.41,1,1
1093.41,1,0
1093.41,0,2
1093.42,2,1
1093.42,1,1
1093.42,1,2
1093.42,2,3
1093.43,3,2
1093.43,2,1
1093.43,1,0
1093.43,0,1
1093.43,1,2
1093.44,2,2
1093.44,2,2
1093.44,2,1
1093.44,1,2
1093.44,2,3
1093.44,2,1
1093.44,1,1
1093.45,0,1
1093.45,1,2
1093.45,2,2
1093.45,2,1
1093.45,1,1
1093.46,1,2
1093.46,2,2
1093.46,2,2
1093.46,3,2
1093.46,1,1
1093.46,1,0
1093.46,0,2
1093.47,2,1
1093.47,1,1
1093.47,1,2
1093.47,2,2
1093.48,1,1
1093.48,1,1
1093.48,2,3
1093.48,2,1
1093.48,0,1
1093.48,1,1
1093.48,1,2
1093.49,2,2
1093.49,2,1
1093.49,1,2
1093.49,2,2
1093.49,2,2
1093.5,2,2
1093.5,1,1
1093.5,1,1
1093.5,1,1
1093.5,2,2
1093.5,2,2
1093.5,2,1
1093.51,1,1
1093.51,1,2
1093.51,2,2
1093.51,1,0
1093.51,0,1
1093.52,3,3
1093.52,2,2
1093.52,2,2
1093.52,2,1
1093.52,1,2
1093.53,2,2
1093.53,2,1
1093.53,1,2
1093.53,1,1
1093.53,1,1
1093.53,2,2
1093.53,2,1
1093.54,0,0
1093.54,0,1
1093.54,1,2
1093.54,2,3
1093.55,2,1
1093.55,1,0
1093.55,1,1
1093.55,1,1
1093.55,2,2
1093.55,2,2
1093.55,1,2
1093.56,3,2
1093.56,2,1
1093.56,1,1
1093.56,1,0
1093.56,0,1
1093.57,1,1
1093.57,1,1
1093.57,2,3
1093.57,2,2
1093.57,1,1
1093.57,1,2
1093.57,2,2
1093.58,2,2
1093.58,3,2
1093.58,1,1
1093.58,1,1
1093.58,0,0
1093.59,1,1
1093.59,2,2
1093.59,1,1
1093.59,1,2
1093.59,2,2
1093.59,2,3
1093.59,2,1
1093.6,1,1
1093.6,0,0
1093.6,1,1
1093.6,1,2
1093.6,2,2
1093.61,1,1
1093.61,1,2
1093.61,2,2
1093.61,1,1
1093.62,1,2
1093.62,3,2
1093.62,2,1
1093.62,1,2
1093.62,2,2
1093.62,2,2
1093.62,1,1
1093.63,1,0
1093.63,1,1
1093.63,1,2
1093.63,2,1
1093.63,1,1
1093.64,1,2
1093.64,1,1
1093.64,1,1
1093.64,2,2
1093.64,2,2
1093.64,2,2
1093.64,2,2
1093.65,1,1
1093.65,1,1
1093.65,1,1
1093.65,1,1
1093.65,1,2
1093.66,2,2
1093.66,3,3
1093.66,1,0
1093.66,1,1
1093.66,2,2
1093.66,2,1
1093.66,1,2
1093.67,2,2
1093.67,2,2
1093.67,1,1
1093.67,0,0
1093.68,1,1
1093.68,1,2
1093.68,3,2
1093.68,2,1
1093.68,1,0
1093.69,0,1
1093.69,2,2
1093.69,3,2
1093.69,1,1
1093.69,1,1
1093.69,0,1
1093.69,1,1
1093.7,1,0
1093.7,1,1
1093.7,1,2
1093.7,2,2
1093.7,2,1
1093.71,1,1
1093.71,1,1
1093.71,1,1
1093.71,2,2
1093.71,1,1
1093.71,1,2
1093.71,2,2
1093.72,2,2
1093.72,2,2
1093.72,2,1
1093.72,1,0
1093.72,1,1
1093.73,1,1
1093.73,1,1
1093.73,3,3
1093.73,2,1
1093.73,1,0
1093.73,1,2
1093.73,2,1
1093.74,1,0
1093.74,0,1
1093.74,1,1
1093.74,2,2
1093.75,3,4
1093.75,3,2
1093.75,1,0
1093.75,0,0
1093.75,1,2
1093.75,2,3
1093.75,2,1
1093.76,1,1
1093.76,1,1
1093.76,1,1
1093.76,1,0
1093.76,1,1
1093.77,1,1
1093.77,1,2
1093.77,2,2
1093.77,2,2
1093.77,2,2
1093.78,2,1
1093.78,1,1
1093.78,1,2
1093.78,2,2
1093.78,2,2
1093.78,2,2
1093.78,2,1
1093.79,1,1
1093.79,1,2
1093.79,2,2
1093.79,2,2
1093.79,2,1
1093.8,1,1
1093.8,2,2
1093.8,1,1
1093.8,1,1
1093.8,2,2
1093.8,2,2
1093.8,2,2
1093.81,2,2
1093.81,1,1
1093.81,1,1
1093.81,0,1
1093.82,1,1
1093.82,1,1
1093.82,2,2
1093.82,2,2
1093.82,2,2
1093.82,2,2
1093.82,2,1
1093.83,1,1
1093.83,1,1
1093.83,0,1
1093.83,1,2
1093.83,2,2
1093.84,1,1
1093.84,1,1
1093.84,2,2
1093.84,2,1
1093.84,2,2
1093.84,2,2
1093.84,1,2
1093.85,2,2
1093.85,2,1
1093.85,1,1
1093.85,1,1
1093.85,2,2
1093.86,2,2
1093.86,2,1
1093.86,1,2
1093.86,2,2
1093.87,2,1
1093.87,1,1
1093.87,2,2
1093.87,2,2
1093.87,2,1
1093.87,1,1
1093.87,1,1
1093.88,1,1
1093.88,2,2
1093.88,2,2
1093.88,2,2
1093.88,2,2
1093.89,2,1
1093.89,1,1
1093.89,1,1
1093.89,0,1
1093.89,2,2
1093.89,2,1
1093.89,1,1
1093.9,1,1
1093.9,1,1
1093.9,1,1
1093.9,1,1
1093.9,0,1
1093.91,1,1
1093.91,1,1
1093.91,1,0
1093.91,1,1
1093.91,1,1
1093.91,2,2
1093.91,1,1
1093.92,1,2
1093.92,2,2
1093.92,2,2
1093.92,2,2
1093.92,2,2
1093.93,2,1
1093.93,1,1
1093.93,0,0
1093.93,1,1
1093.93,0,0
1093.93,1,1
1093.93,2,2
1093.94,2,2
1093.94,2,2
1093.94,2,2
1093.94,2,2
1093.95,1,1
1093.95,1,2
1093.95,2,2
1093.95,2,2
1093.95,1,1
1093.96,1,2
1093.96,3,2
1093.96,1,1
1093.96,1,1
1093.96,2,2
1093.96,2,2
1093.96,2,1
1093.97,1,1
1093.97,1,1
1093.97,2,2
1093.97,2,2
1093.97,1,1
1093.98,1,2
1093.98,2,2
1093.98,2,1
1093.98,1,1
1093.98,1,1
1093.98,2,2
1093.98,2,2
1093.99,2,2
1093.99,2,2
1093.99,2,1
1093.99,1,0
1093.99,0,0
1094,1,2
1094,4,4
1094,3,2
1094,2,1
1094,1,1
1094,1,1
1094,1,1
1094.01,1,0
1094.01,0,2
1094.01,1,1
1094.01,1,1
1094.02,1,1
1094.02,1,1
1094.02,2,3
1094.02,3,3
1094.02,1,1
1094.03,1,1
1094.03,0,1
1094.03,1,1
1094.03,1,1
1094.03,1,0
1094.03,1,2
1094.03,2,2
1094.04,2,1
1094.04,1,1
1094.04,1,2
1094.04,2,2
1094.04,2,1
1094.05,1,1
1094.05,1,0
1094.05,0,1
1094.05,1,1
1094.05,1,1
1094.05,1,1
1094.05,2,2
1094.06,2,2
1094.06,1,1
1094.06,1,1
1094.06,2,2
1094.07,2,2
1094.07,3,2
1094.07,2,2
1094.07,1,1
1094.07,0,0
1094.07,0,1
1094.07,0,1
1094.08,2,3
1094.08,3,2
1094.08,1,1
1094.08,1,2
1094.08,2,2
1094.09,1,1
1094.09,1,1
1094.09,1,1
1094.09,1,1
1094.09,1,0
1094.09,1,1
1094.09,1,1
1094.1,1,2
1094.1,2,2
1094.1,2,2
1094.1,2,1
1094.1,1,1
1094.11,2,2
1094.11,2,2
1094.11,2,2
1094.11,2,2
1094.11,1,1
1094.12,1,1
1094.12,1,1
1094.12,1,1
1094.12,1,1
1094.12,1,1
1094.12,1,1
1094.12,1,0
1094.13,1,1
1094.13,2,2
1094.13,2,2
1094.13,2,2
1094.14,2,2
1094.14,1,1
1094.14,1,1
1094.14,0,2
1094.14,2,2
1094.14,1,2
1094.14,3,2
1094.15,1,1
1094.15,0,0
1094.15,1,2
1094.15,3,1
1094.15,1,1
1094.16,1,1
1094.16,3,3
1094.16,2,1
1094.16,0,0
1094.16,0,0
1094.16,2,2
1094.16,1,1
1094.17,1,1
1094.17,3,3
1094.17,3,1
1094.17,1,0
1094.17,1,1
1094.18,1,2
1094.18,2,2
1094.18,2,2
1094.18,2,1
1094.18,1,1
1094.18,2,2
1094.18,2,2
1094.19,2,2
1094.19,1,1
1094.19,1,1
1094.19,1,2
1094.19,2,2
1094.2,1,1
1094.2,2,2
1094.2,2,2
1094.2,2,2
1094.21,2,1
1094.21,1,0
1094.21,1,1
1094.21,1,1
1094.21,1,2
1094.21,2,1
1094.21,1,1
1094.22,1,2
1094.22,3,3
1094.22,2,1
1094.22,1,1
1094.22,0,0
1094.23,1,1
1094.23,2,2
1094.23,3,2
1094.23,1,0
1094.23,0,1
1094.23,1,1
1094.23,2,1
1094.24,1,2
1094.24,2,2
1094.24,2,2
1094.24,2,2
1094.24,2,2
1094.25,1,1
1094.25,0,1
1094.25,1,1
1094.25,1,2
1094.25,2,2
1094.25,2,2
1094.25,2,2
1094.26,2,1
1094.26,1,1
1094.26,1,2
1094.26,2,2
1094.27,2,2
1094.27,2,2
1094.27,2,1
1094.27,1,1
1094.27,2,2
1094.27,1,1
1094.27,1,2
1094.28,2,2
1094.28,2,3
1094.28,2,2
1094.28,1,1
1094.28,0,1
1094.29,1,2
1094.29,2,1
1094.29,1,1
1094.29,1,0
1094.29,0,1
1094.3,1,1
1094.3,1,2
1094.3,2,3
1094.3,3,1
1094.3,0,0
1094.3,2,2
1094.3,2,1
1094.31,2,2
1094.31,2,2
1094.31,1,1
1094.31,1,1
1094.31,1,1
1094.32,1,1
1094.32,1,1
1094.32,3,4
1094.32,3,3
1094.32,3,1
1094.32,0,0
1094.32,0,0
1094.33,0,1
1094.33,2,2
1094.33,2,2
1094.33,2,2
1094.34,2,1
1094.34,1,0
1094.34,0,0
1094.34,1,1
1094.34,2,2
1094.34,1,1
1094.34,1,2
1094.35,2,2
1094.35,2,2
1094.35,2,2
1094.35,2,1
1094.35,1,1
1094.36,2,2
1094.36,2,2
1094.36,2,1
1094.36,1,1
1094.36,2,2
1094.36,2,3
1094.36,2,1
1094.37,1,1
1094.37,1,1
1094.37,1,0
1094.37,0,1
1094.37,1,1
1094.38,2,2
1094.38,2,2
1094.38,2,2
1094.38,2,2
1094.38,1,1
1094.39,1,2
1094.39,2,2
1094.39,2,2
1094.39,2,1
1094.39,1,1
1094.39,1,1
1094.39,2,2
1094.4,2,2
1094.4,1,1
1094.4,1,1
1094.4,3,3
1094.41,2,1
1094.41,0,1
1094.41,2,2
1094.41,1,1
1094.41,1,0
1094.41,0,1
1094.41,1,2
1094.42,1,1
1094.42,2,2
1094.42,2,2
1094.42,2,2
1094.42,2,2
1094.43,2,1
1094.43,1,1
1094.43,1,1
1094.43,2,2
1094.43,2,2
1094.43,2,2
1094.43,2,1
1094.44,1,1
1094.44,1,1
1094.44,1,0
1094.44,1,1
1094.44,1,0
1094.45,1,2
1094.45,2,2
1094.45,2,2
1094.45,1,1
1094.46,2,2
1094.46,2,2
1094.46,1,1
1094.46,1,1
1094.46,1,2
1094.46,2,2
1094.46,2,3
1094.47,1,1
1094.47,1,1
1094.47,1,0
1094.47,1,1
1094.47,1,1
1094.48,1,2
1094.48,2,2
1094.48,2,2
1094.48,3,2
1094.48,1,1
1094.48,1,1
1094.48,1,1
1094.49,1,1
1094.49,1,1
1094.49,0,1
1094.49,1,1
1094.49,1,2
1094.5,2,2
1094.5,2,2
1094.5,2,2
1094.5,2,2
1094.5,2,1
1094.5,1,1
1094.5,1,1
1094.51,0,1
1094.51,1,1
1094.51,1,1
1094.51,2,2
1094.51,2,2
1094.52,2,2
1094.52,2,2
1094.52,2,1
1094.52,1,1
1094.52,1,1
1094.52,2,2
1094.52,1,1
1094.53,0,0
1094.53,1,2
1094.53,2,2
1094.53,2,1
1094.54,1,1
1094.54,1,1
1094.54,1,1
1094.54,0,1
1094.54,1,1
1094.55,2,2
1094.55,2,2
1094.55,2,2
1094.55,1,1
1094.55,1,2
1094.55,2,2
1094.55,2,2
1094.56,1,1
1094.56,1,2
1094.56,2,2
1094.56,2,2
1094.56,2,2
1094.57,1,1
1094.57,1,1
1094.57,0,1
1094.57,2,2
1094.57,2,2
1094.57,1,1
1094.57,1,1
1094.58,1,1
1094.58,2,2
1094.58,2,2
1094.58,1,1
1094.59,1,1
1094.59,2,2
1094.59,2,2
1094.59,2,2
1094.59,1,1
1094.59,1,1
1094.59,2,3
1094.59,3,1
1094.6,1,1
1094.6,1,0
1094.6,1,2
1094.6,2,2
1094.61,1,1
1094.61,1,1
1094.61,1,1
1094.61,1,1
1094.61,1,0
1094.61,1,1
1094.61,1,2
1094.62,2,2
1094.62,2,2
1094.62,2,2
1094.62,2,1
1094.62,1,1
1094.63,1,2
1094.63,2,2
1094.63,2,2
1094.63,3,1
1094.63,1,1
1094.64,1,1
1094.64,1,1
1094.64,1,1
1094.64,1,1
1094.64,1,1
1094.64,1,1
1094.64,1,1
1094.65,0,1
1094.65,1,1
1094.65,1,1
1094.65,1,1
1094.66,1,1
1094.66,2,2
1094.66,2,2
1094.66,2,2
1094.66,2,2
1094.66,2,2
1094.66,1,1
1094.67,1,1
1094.67,1,2
1094.67,2,2
1094.67,2,2
1094.67,2,2
1094.68,2,1
1094.68,1,1
1094.68,2,2
1094.68,2,2
1094.68,2,1
1094.68,1,1
1094.68,1,1
1094.69,2,2
1094.69,1,1
1094.69,1,1
1094.69,2,2
1094.69,1,1
1094.7,2,3
1094.7,3,2
1094.7,1,0
1094.7,0,1
1094.7,2,2
1094.7,2,2
1094.71,1,1
1094.71,1,1
1094.71,1,0
1094.71,0,1
1094.71,1,1
1094.71,1,1
1094.72,1,2
1094.72,2,2
1094.72,2,2
1094.72,2,2
1094.73,2,2
1094.73,2,1
1094.73,1,1
1094.73,0,1
1094.73,1,1
1094.73,2,1
1094.73,1,1
1094.74,1,1
1094.74,2,2
1094.74,2,2
1094.74,2,1
1094.74,1,2
1094.75,1,1
1094.75,1,1
1094.75,1,1
1094.75,1,2
1094.75,1,1
1094.75,2,3
1094.75,3,2
1094.76,1,0
1094.76,1,1
1094.76,1,2
1094.76,2,2
1094.76,2,2
1094.77,1,2
1094.77,2,2
1094.77,1,1
1094.77,1,1
1094.77,0,1
1094.77,0,1
1094.77,2,3
1094.78,3,1
1094.78,1,0
1094.78,1,2
1094.78,3,2
1094.79,2,1
1094.79,1,1
1094.79,1,1
1094.79,1,1
1094.79,1,1
1094.8,1,1
1094.8,1,1
1094.8,1,1
1094.8,1,1
1094.8,1,1
1094.8,1,0
1094.8,1,1
1094.81,2,2
1094.81,2,2
1094.81,2,2
1094.81,2,2
1094.81,2,2
1094.82,1,1
1094.82,1,1
1094.82,1,2
1094.82,3,3
1094.82,2,1
1094.82,0,1
1094.82,2,2
1094.83,2,1
1094.83,0,0
1094.83,1,2
1094.83,2,1
1094.83,0,0
1094.84,1,1
1094.84,1,1
1094.84,1,1
1094.84,1,1
1094.84,2,2
1094.84,2,2
1094.84,2,2
1094.85,2,2
1094.85,2,2
1094.85,1,2
1094.85,2,2
1094.86,1,0
1094.86,0,1
1094.86,1,1
1094.86,1,1
1094.86,1,1
1094.86,1,2
1094.86,3,3
1094.87,2,2
1094.87,2,2
1094.87,2,1
1094.87,0,0
1094.87,0,1
1094.88,2,3
1094.88,3,2
1094.88,1,1
1094.88,1,2
1094.88,2,2
1094.89,2,1
1094.89,1,1
1094.89,0,0
1094.89,0,1
1094.89,1,1
1094.89,1,2
1094.89,3,2
1094.9,1,1
1094.9,1,1
1094.9,3,5
1094.9,4,2
1094.9,0,-1
1094.91,0,0
1094.91,2,3
1094.91,4,3
1094.91,3,2
1094.91,1,0
1094.91,0,0
1094.91,0,0
1094.92,1,2
1094.92,3,3
1094.92,3,3
1094.92,4,2
1094.93,1,0
1094.93,0,1
1094.93,2,2
1094.93,2,2
1094.93,2,1
1094.93,0,1
1094.93,1,1
1094.94,2,2
1094.94,2,2
1094.94,2,2
1094.94,2,1
1094.94,0,1
1094.95,0,1
1094.95,2,3
1094.95,3,2
1094.95,1,0
1094.95,0,1
1094.95,1,1
1094.95,1,1
1094.96,1,1
1094.96,1,2
1094.96,3,3
1094.96,3,2
1094.96,1,1
1094.97,0,0
1094.97,1,1
1094.97,0,0
1094.97,1,1
1094.97,2,2
1094.98,1,1
1094.98,1,2
1094.98,4,4
1094.98,2,1
1094.98,0,0
1094.98,1,2
1094.98,1,0
1094.99,0,0
1094.99,0,1
1094.99,1,2
1094.99,3,3
1095,2,2
1095,1,1
1095,2,3
1095,3,4
1095,3,0
1095,-1,-1
1095,0,0
1095.01,2,2
1095.01,3,2
1095.01,1,0
1095.01,0,0
1095.01,2,2
1095.02,3,3
1095.02,2,2
1095.02,1,1
1095.02,1,3
1095.02,3,2
1095.02,2,1
1095.02,1,1
1095.03,1,1
1095.03,1,1
1095.03,1,1
1095.03,1,1
1095.03,0,0
1095.04,2,2
1095.04,1,1
1095.04,2,2
1095.04,2,2
1095.04,2,2
1095.04,2,2
1095.04,1,1
1095.05,1,1
1095.05,2,2
1095.05,1,1
1095.05,2,2
1095.06,2,1
1095.06,1,2
1095.06,4,5
1095.06,4,0
1095.06,0,-1
1095.07,0,0
1095.07,1,2
1095.07,3,3
1095.07,3,1
1095.07,1,1
1095.07,1,2
1095.07,2,1
1095.08,1,2
1095.08,2,3
1095.08,3,3
1095.08,2,0
1095.08,0,0
1095.09,0,0
1095.09,1,1
1095.09,2,2
1095.09,2,2
1095.09,2,2
1095.09,2,2
1095.09,3,2
1095.1,2,1
1095.1,0,0
1095.1,0,0
1095.1,0,1
1095.1,2,2
1095.11,2,2
1095.11,2,1
1095.11,1,2
1095.11,2,2
1095.11,2,2
1095.11,2,2
1095.11,1,1
1095.12,2,2
1095.12,2,2
1095.12,2,1
1095.12,1,2
1095.13,2,1
1095.13,0,0
1095.13,0,1
1095.13,2,2
1095.13,1,0
1095.14,0,0
1095.14,1,2
1095.14,4,4
1095.14,1,0
1095.14,0,0
1095.14,0,1
1095.14,4,5
1095.15,7,6
1095.15,3,0
1095.15,-1,0
1095.15,0,0
1095.15,0,0
1095.16,0,1
1095.16,2,3
1095.16,2,1
1095.16,1,1
1095.16,2,2
1095.16,1,1
1095.16,1,1
1095.17,1,2
1095.17,2,2
1095.17,2,2
1095.17,3,2
1095.17,1,0
1095.18,0,2
1095.18,1,1
1095.18,0,0
1095.18,0,2
1095.18,2,2
1095.18,2,2
1095.18,2,2
1095.19,2,2
1095.19,3,2
1095.19,2,1
1095.19,1,1
1095.2,0,0
1095.2,0,1
1095.2,1,2
1095.2,2,2
1095.2,2,2
1095.2,2,2
1095.2,1,1
1095.21,1,1
1095.21,1,1
1095.21,1,1
1095.21,1,0
1095.21,1,1
1095.22,1,0
1095.22,1,1
1095.22,3,5
1095.22,5,3
1095.22,0,1
1095.23,1,1
1095.23,2,2
1095.23,1,0
1095.23,-1,0
1095.23,0,0
1095.23,3,3
1095.23,3,3
1095.24,2,2
1095.24,1,2
1095.24,3,2
1095.24,1,1
1095.24,0,1
1095.25,1,1
1095.25,2,3
1095.25,3,2
1095.25,1,0
1095.25,0,0
1095.25,1,0
1095.25,0,1
1095.26,2,1
1095.26,1,2
1095.26,3,3
1095.26,3,2
1095.27,2,2
1095.27,3,2
1095.27,0,0
1095.27,0,0
1095.27,0,0
1095.27,1,1
1095.27,2,2
1095.28,2,2
1095.28,2,3
1095.28,2,2
1095.28,2,2
1095.28,1,1
1095.29,1,1
1095.29,0,0
1095.29,0,0
1095.29,1,3
1095.29,3,2
1095.29,2,1
1095.29,2,3
1095.3,5,5
1095.3,4,3
1095.3,1,0
1095.3,0,0
1095.3,0,0
1095.31,1,1
1095.31,1,0
1095.31,0,0
1095.31,1,2
1095.32,3,3
1095.32,3,1
1095.32,1,1
1095.32,1,1
1095.32,1,1
1095.32,3,3
1095.32,3,1
1095.32,1,1
1095.33,2,1
1095.33,1,1
1095.33,0,0
1095.33,1,1
1095.34,2,2
1095.34,1,2
1095.34,2,2
1095.34,3,2
1095.34,2,2
1095.34,1,1
1095.34,1,1
1095.35,1,1
1095.35,2,1
1095.35,0,0
1095.35,1,1
1095.35,2,1
1095.36,1,2
1095.36,5,6
1095.36,5,1
1095.36,-1,-2
1095.36,-2,0
1095.36,2,3
1095.36,3,3
1095.37,2,1
1095.37,1,1
1095.37,0,1
1095.37,2,2
1095.37,3,3
1095.38,2,2
1095.38,1,1
1095.38,1,1
1095.38,1,0
1095.38,1,1
1095.38,1,1
1095.38,1,1
1095.39,2,3
1095.39,4,3
1095.39,1,0
1095.39,0,1
1095.4,2,1
1095.4,0,0
1095.4,1,0
1095.4,1,3
1095.4,5,6
1095.41,4,2
1095.41,0,0
1095.41,0,1
1095.41,2,2
1095.41,2,1
1095.41,0,0
1095.41,0,0
1095.42,0,1
1095.42,3,5
1095.42,4,2
1095.42,0,0
1095.42,0,0
1095.43,0,1
1095.43,2,3
1095.43,4,3
1095.43,2,2
1095.43,2,2
1095.43,1,1
1095.43,0,0
1095.44,0,0
1095.44,2,1
1095.44,0,0
1095.44,0,1
1095.44,2,3
1095.45,5,4
1095.45,4,3
1095.45,3,2
1095.45,2,0
1095.45,0,0
1095.45,0,0
1095.45,0,0
1095.46,1,2
1095.46,3,3
1095.46,2,2
1095.46,1,1
1095.47,1,1
1095.47,1,2
1095.47,2,1
1095.47,1,1
1095.47,2,3
1095.47,2,2
1095.47,1,0
1095.48,0,2
1095.48,4,3
1095.48,2,1
1095.48,1,0
1095.48,0,0
1095.49,1,2
1095.49,2,2
1095.49,2,2
1095.49,2,1
1095.49,0,0
1095.5,0,1
1095.5,3,4
1095.5,3,2
1095.5,1,0
1095.5,1,2
1095.5,1,0
1095.5,0,1
1095.51,2,4
1095.51,3,1
1095.51,0,0
1095.51,1,1
1095.51,1,1
1095.52,1,1
1095.52,0,1
1095.52,2,1
1095.52,1,2
1095.52,5,5
1095.52,5,4
1095.52,3,2
1095.53,0,0
1095.53,-1,0
1095.53,0,0
1095.53,1,1
1095.54,2,3
1095.54,4,2
1095.54,0,-1
1095.54,-2,0
1095.54,1,4
1095.54,6,5
1095.54,4,3
1095.55,2,1
1095.55,0,0
1095.55,1,1
1095.55,1,1
1095.55,1,1
1095.56,0,0
1095.56,1,2
1095.56,3,2
1095.56,1,0
1095.56,1,0
1095.57,0,0
1095.57,2,2
1095.57,3,3
1095.57,2,1
1095.57,0,1
1095.57,3,3
1095.57,2,1
1095.58,1,2
1095.58,3,2
1095.58,1,0
1095.58,0,0
1095.58,1,2
1095.59,4,3
1095.59,3,2
1095.59,1,1
1095.59,1,1
1095.59,1,0
1095.59,-1,0
1095.59,1,2
1095.6,2,0
1095.6,0,1
1095.6,3,6
1095.6,5,3
1095.61,1,0
1095.61,-1,-1
1095.61,0,2
1095.61,4,6
1095.61,5,3
1095.61,0,0
1095.61,1,0
1095.62,0,0
1095.62,1,2
1095.62,3,2
1095.62,2,1
1095.62,0,0
1095.63,1,1
1095.63,2,3
1095.63,2,1
1095.63,0,2
1095.63,3,3
1095.63,2,1
1095.63,0,0
1095.64,0,0
1095.64,1,2
1095.64,3,4
1095.64,2,2
1095.64,1,1
1095.65,1,0
1095.65,0,2
1095.65,1,1
1095.65,1,0
1095.66,1,2
1095.66,2,2
1095.66,2,3
1095.66,2,1
1095.66,1,0
1095.66,0,0
1095.66,2,5
1095.67,5,3
1095.67,1,0
1095.67,-1,0
1095.67,2,4
1095.67,3,2
1095.68,0,0
1095.68,0,1
1095.68,2,1
1095.68,1,1
1095.68,1,2
1095.68,2,2
1095.68,3,3
1095.69,1,0
1095.69,0,0
1095.69,1,1
1095.69,0,2
1095.69,3,3
1095.7,1,0
1095.7,1,2
1095.7,2,3
1095.7,4,2
1095.7,1,0
1095.7,0,0
1095.7,0,1
1095.71,2,3
1095.71,3,2
1095.71,1,1
1095.71,0,0
1095.71,1,1
1095.72,1,1
1095.72,2,3
1095.72,3,1
1095.72,1,2
1095.72,3,4
1095.72,3,1
1095.72,0,0
1095.73,1,1
1095.73,1,1
1095.73,0,0
1095.73,1,1
1095.74,0,0
1095.74,1,1
1095.74,2,3
1095.74,4,4
1095.74,3,2
1095.75,0,0
1095.75,1,1
1095.75,1,2
1095.75,3,3
1095.75,2,1
1095.75,1,2
1095.75,1,1
1095.76,1,1
1095.76,1,1
1095.76,2,2
1095.76,3,2
1095.76,2,1
1095.77,1,2
1095.77,3,2
1095.77,0,0
1095.77,1,1
1095.77,2,3
1095.77,3,4
1095.77,2,0
1095.78,-3,-2
1095.78,0,2
1095.78,4,7
1095.78,7,4
1095.79,0,-1
1095.79,-1,-1
1095.79,0,1
1095.79,2,2
1095.79,2,2
1095.79,1,1
1095.79,2,2
1095.79,2,1
1095.8,1,2
1095.8,2,3
1095.8,2,1
1095.8,1,1
1095.81,1,0
1095.81,1,1
1095.81,0,1
1095.81,2,3
1095.81,3,2
1095.81,2,2
1095.81,1,0
1095.82,0,0
1095.82,1,0
1095.82,0,0
1095.82,2,2
1095.82,3,5
1095.83,5,3
1095.83,1,0
1095.83,0,0
1095.83,0,1
1095.83,2,3
1095.84,2,1
1095.84,0,0
1095.84,0,2
1095.84,2,2
1095.84,1,1
1095.84,2,3
1095.84,3,2
1095.85,1,1
1095.85,0,1
1095.85,2,2
1095.85,2,2
1095.86,3,2
1095.86,1,1
1095.86,0,0
1095.86,2,2
1095.86,2,3
1095.86,3,1
1095.86,0,0
1095.87,0,0
1095.87,0,0
1095.87,1,1
1095.87,2,3
1095.87,3,2
1095.88,0,1
1095.88,0,0
1095.88,0,1
1095.88,3,5
1095.88,5,6
1095.88,5,1
1095.88,-1,0
1095.89,2,2
1095.89,2,1
1095.89,0,0
1095.89,0,1
1095.89,1,1
1095.9,0,1
1095.9,1,1
1095.9,1,1
1095.9,2,2
1095.9,2,2
1095.91,1,1
1095.91,1,2
1095.91,3,3
1095.91,2,1
1095.91,1,1
1095.91,1,2
1095.91,2,2
1095.92,1,0
1095.92,0,0
1095.92,1,2
1095.92,2,2
1095.93,1,1
1095.93,1,1
1095.93,1,1
1095.93,1,1
1095.93,1,0
1095.93,0,0
1095.93,1,3
1095.94,4,3
1095.94,2,0
1095.94,0,0
1095.94,0,2
1095.94,4,6
1095.95,4,2
1095.95,1,0
1095.95,0,0
1095.95,0,0
1095.95,0,2
1095.95,2,1
1095.95,1,1
1095.96,1,1
1095.96,2,3
1095.96,3,2
1095.96,1,2
1095.96,2,2
1095.97,2,1
1095.97,1,2
1095.97,2,3
1095.97,3,2
1095.97,1,0
1095.97,0,0
1095.97,1,2
1095.98,3,2
1095.98,1,1
1095.98,2,2
1095.98,3,2
1095.98,1,1
1095.99,0,0
1095.99,0,0
1095.99,1,3
1095.99,5,6
1096,6,3
1096,0,0
1096,0,0
1096,0,0
1096,-1,1
1096,4,4
1096,4,3
1096.01,2,0
1096.01,0,0
1096.01,0,0
1096.01,2,3
1096.01,4,4
1096.02,3,2
1096.02,2,1
1096.02,1,0
1096.02,0,0
1096.02,0,2
1096.02,4,4
1096.02,2,1
1096.03,0,1
1096.03,1,1
1096.03,0,1
1096.03,1,1
1096.03,2,3
1096.04,3,3
1096.04,2,2
1096.04,1,1
1096.04,1,1
1096.04,1,1
1096.04,1,0
1096.04,0,1
1096.05,2,1
1096.05,1,1
1096.05,2,2
1096.05,2,2
1096.05,2,2
1096.06,3,2
1096.06,1,0
1096.06,0,0
1096.06,1,3
1096.06,4,3
1096.06,2,0
1096.06,0,0
1096.07,1,3
1096.07,4,2
1096.07,1,1
1096.07,0,0
1096.08,1,1
1096.08,1,1
1096.08,1,1
1096.08,0,0
1096.08,1,2
1096.09,3,2
1096.09,2,2
1096.09,2,1
1096.09,1,1
1096.09,2,2
1096.09,2,2
1096.09,2,2
1096.1,2,2
1096.1,3,3
1096.1,2,0
1096.1,0,0
1096.1,0,0
1096.11,1,1
1096.11,1,1
1096.11,1,1
1096.11,2,2
1096.11,1,1
1096.11,1,1
1096.11,1,0
1096.12,0,1
1096.12,1,2
1096.12,3,3
1096.12,1,1
1096.13,0,1
1096.13,1,2
1096.13,2,1
1096.13,1,2
1096.13,3,3
1096.13,2,1
1096.13,0,0
1096.13,1,1
1096.14,1,2
1096.14,4,3
1096.14,2,1
1096.14,0,0
1096.15,2,3
1096.15,3,1
1096.15,0,0
1096.15,0,2
1096.15,2,2
1096.15,1,1
1096.15,2,3
1096.16,4,4
1096.16,3,0
1096.16,1,0
1096.16,0,0
1096.16,0,1
1096.17,1,2
1096.17,3,3
1096.17,1,1
1096.17,0,0
1096.17,1,1
1096.18,1,1
1096.18,2,2
1096.18,2,1
1096.18,1,2
1096.18,1,2
1096.18,3,3
1096.18,1,1
1096.19,1,2
1096.19,2,2
1096.19,1,1
1096.19,0,0
1096.2,1,1
1096.2,0,2
1096.2,3,4
1096.2,3,1
1096.2,1,1
1096.2,1,1
1096.2,1,1
1096.21,0,0
1096.21,0,0
1096.21,1,1
1096.21,0,2
1096.21,3,5
1096.22,5,3
1096.22,2,1
1096.22,1,1
1096.22,0,1
1096.22,1,1
1096.22,1,1
1096.22,1,2
1096.23,1,-1
1096.23,-1,0
1096.23,2,4
1096.23,4,3
1096.23,2,2
1096.24,2,2
1096.24,1,2
1096.24,3,2
1096.24,1,0
1096.24,0,0
1096.24,1,3
1096.24,3,2
1096.25,1,0
1096.25,0,1
1096.25,1,3
1096.25,5,3
1096.25,1,2
1096.26,3,2
1096.26,1,0
1096.26,0,1
1096.26,3,5
1096.27,3,0
1096.27,-2,-1
1096.27,0,2
1096.27,1,1
1096.27,2,2
1096.27,2,2
1096.27,2,2
1096.28,1,1
1096.28,1,2
1096.28,1,2
1096.28,3,3
1096.28,2,1
1096.29,1,1
1096.29,2,1
1096.29,0,0
1096.29,1,1
1096.29,1,2
1096.29,2,2
1096.29,3,3
1096.3,2,1
1096.3,0,0
1096.3,0,1
1096.3,1,1
1096.3,2,3
1096.31,3,2
1096.31,1,0
1096.31,1,1
1096.31,2,1
1096.31,0,0
1096.31,0,0
1096.31,0,1
1096.32,1,2
1096.32,3,3
1096.32,2,2
1096.32,3,3
1096.32,3,2
1096.33,1,0
1096.33,1,2
1096.33,4,3
1096.33,3,1
1096.34,0,0
1096.34,0,0
1096.34,0,0
1096.34,2,4
1096.34,5,2
1096.34,1,1
1096.34,3,2
1096.35,1,1
1096.35,2,2
1096.35,1,1
1096.35,0,0
1096.35,0,0
1096.36,1,1
1096.36,1,0
1096.36,1,1
1096.36,0,0
1096.36,2,2
1096.36,2,3
1096.36,3,3
1096.37,2,2
1096.37,3,3
1096.37,3,2
1096.37,1,1
1096.37,2,1
1096.38,0,0
1096.38,0,0
1096.38,-1,0
1096.38,2,6
1096.38,7,5
1096.38,3,1
1096.38,0,0
1096.39,1,2
1096.39,1,1
1096.39,1,1
1096.39,0,0
1096.39,0,1
1096.4,3,3
1096.4,2,1
1096.4,0,0
1096.4,1,3
1096.4,4,4
1096.4,3,1
1096.4,2,2
1096.41,0,-1
1096.41,0,1
1096.41,2,3
1096.41,3,2
1096.42,1,0
1096.42,1,2
1096.42,3,3
1096.42,2,2
1096.42,2,1
1096.43,0,0
1096.43,0,0
1096.43,0,1
1096.43,1,0
1096.43,1,3
1096.43,6,8
1096.43,6,3
1096.44,1,0
1096.44,-1,0
1096.44,0,0
1096.44,1,2
1096.44,2,1
1096.45,1,0
1096.45,0,1
1096.45,1,2
1096.45,2,1
1096.45,1,1
1096.45,3,3
1096.45,2,1
1096.46,1,2
1096.46,3,3
1096.46,2,1
1096.46,0,0
1096.47,0,1
1096.47,1,2
1096.47,2,2
1096.47,2,1
1096.47,0,0
1096.47,0,1
1096.47,1,4
1096.48,6,5
1096.48,4,2
1096.48,1,1
1096.48,1,1
1096.48,0,0
1096.49,0,0
1096.49,0,0
1096.49,0,1
1096.49,2,2
1096.49,3,3
1096.49,3,2
1096.49,2,2
1096.5,2,2
1096.5,3,2
1096.5,1,0
1096.5,0,0
1096.5,1,3
1096.51,4,5
1096.51,4,2
1096.51,0,-1
1096.51,0,0
1096.51,1,2
1096.52,2,3
1096.52,4,2
1096.52,2,1
1096.52,0,1
1096.52,1,2
1096.52,2,1
1096.52,0,0
1096.53,-1,-1
1096.53,1,4
1096.53,5,5
1096.53,3,2
1096.54,1,0
1096.54,0,0
1096.54,1,2
1096.54,2,1
1096.54,1,0
1096.54,1,0
1096.54,0,1
1096.55,2,3
1096.55,4,3
1096.55,3,2
1096.55,0,0
1096.55,1,1
1096.56,1,0
1096.56,0,2
1096.56,2,2
1096.56,1,1
1096.56,1,1
1096.56,1,1
1096.56,1,0
1096.57,1,2
1096.57,2,2
1096.57,2,2
1096.57,2,2
1096.57,1,1
1096.58,1,1
1096.58,0,-1
1096.58,0,2
1096.58,5,6
1096.58,5,4
1096.58,1,1
1096.58,1,0
1096.59,0,-1
1096.59,-2,-1
1096.59,1,3
1096.59,3,4
1096.59,3,2
1096.6,0,1
1096.6,3,4
1096.6,4,2
1096.6,1,0
1096.61,0,-1
1096.61,0,0
1096.61,1,2
1096.61,4,3
1096.61,4,3
1096.61,1,0
1096.61,1,1
1096.62,1,0
1096.62,0,0
1096.62,1,2
1096.62,3,4
1096.62,4,4
1096.63,3,2
1096.63,1,0
1096.63,-1,0
1096.63,0,2
1096.63,3,4
1096.63,2,1
1096.63,0,0
1096.64,-1,0
1096.64,0,2
1096.64,6,7
1096.64,5,3
1096.64,2,1
1096.65,0,1
1096.65,2,1
1096.65,0,0
1096.65,0,1
1096.65,1,1
1096.65,1,1
1096.65,2,3
1096.66,4,3
1096.66,2,1
1096.66,1,1
1096.66,1,0
1096.66,0,1
1096.67,1,1
1096.67,0,0
1096.67,0,1
1096.67,2,1
1096.68,0,0
1096.68,0,-1
1096.68,1,5
1096.68,7,7
1096.68,3,-2
1096.68,-4,0
1096.68,5,5
1096.69,7,7
1096.69,5,4
1096.69,3,3
1096.69,4,4
1096.69,0,-4
1096.7,-12,-18
1096.7,-15,-7
1096.7,4,14
1096.7,20,25
1096.7,22,14
1096.7,6,0
1096.7,3,8
1096.71,5,-6
1096.71,-20,-26
1096.71,-21,-10
1096.71,7,22
1096.72,23,15
1096.72,1,-9
1096.72,-11,-9
1096.72,-10,-10
1096.72,-7,-2
1096.72,2,6
1096.72,11,15
1096.73,21,26
1096.73,18,-3
1096.73,-12,-11
1096.73,-15,-19
1096.73,-15,0
1096.74,18,27
1096.74,19,7
1096.74,-6,-15
1096.74,-10,1
1096.74,15,22
1096.74,12,1
1096.75,-3,-1
1096.75,5,11
1096.75,6,-4
1096.75,-16,-11
1096.75,1,10
1096.76,14,15
1096.76,16,8
1096.76,-6,-12
1096.76,-12,-9
1096.77,-3,1
1096.77,0,-4
1096.77,-4,0
1096.77,4,8
1096.77,11,17
1096.77,17,10
1096.77,0,-10
1096.78,-12,-6
1096.78,1,4
1096.78,2,0
1096.78,-1,-1
1096.78,0,3
1096.79,1,-6
1096.79,-9,-4
1096.79,4,13
1096.79,14,11
1096.79,7,1
1096.79,-6,-12
1096.79,-11,-10
1096.8,-2,9
1096.8,13,6
1096.8,3,9
1096.8,11,13
1096.81,16,16
1096.81,12,3
1096.81,-1,-6
1096.81,-11,-11
1096.81,-12,-11
1096.81,-10,-7
1096.81,-1,6
1096.82,12,16
1096.82,17,17
1096.82,15,8
1096.82,0,-6
1096.82,-9,-9
1096.83,-7,-6
1096.83,-3,-1
1096.83,0,0
1096.83,1,3
1096.83,4,7
1096.83,7,6
1096.83,4,2
1096.84,0,1
1096.84,3,3
1096.84,2,1
1096.84,0,0
1096.85,-1,0
1096.85,0,1
1096.85,1,0
1096.85,0,3
1096.85,6,6
1096.86,6,4
1096.86,2,1
1096.86,0,0
1096.86,0,0
1096.86,0,-1
1096.86,-2,0
1096.86,1,2
1096.87,3,4
1096.87,5,5
1096.87,4,3
1096.87,3,1
1096.87,0,0
1096.88,-3,-3
1096.88,0,3
1096.88,5,5
1096.88,5,-1
1096.88,-6,-6
1096.88,-1,2
1096.88,6,8
1096.89,10,13
1096.89,11,4
1096.89,-3,-6
1096.89,-3,-2
1096.89,0,1
1096.9,2,2
1096.9,1,1
1096.9,2,2
1096.9,3,4
1096.9,6,7
1096.9,6,4
1096.91,0,-2
1096.91,-4,-4
1096.91,-5,-4
1096.91,-1,0
1096.91,4,4
1096.92,4,4
1096.92,3,4
1096.92,5,5
1096.92,3,1
1096.92,0,0
1096.92,-1,-1
1096.92,-2,0
1096.93,1,3
1096.93,5,5
1096.93,6,4
1096.93,2,0
1096.93,1,2
1096.94,3,3
1096.94,2,1
1096.94,0,-1
1096.94,-3,-3
1096.94,-2,0
1096.95,0,3
1096.95,6,6
1096.95,4,4
1096.95,5,4
1096.95,2,1
1096.95,2,4
1096.95,6,4
1096.96,0,-4
1096.96,-5,-4
1096.96,-1,1
1096.96,3,3
1096.97,2,2
1096.97,2,3
1096.97,3,2
1096.97,2,1
1096.97,0,0
1096.97,0,0
1096.97,0,1
1096.98,1,2
1096.98,3,4
1096.98,3,2
1096.98,2,2
1096.98,3,4
1096.99,6,5
1096.99,2,1
1096.99,0,0
1096.99,-1,-1
1096.99,-1,-2
1096.99,-3,-2
1096.99,0,0
1097,2,3
1097,4,5
1097,6,6
1097,5,4
1097,1,2
1097.01,3,2
1097.01,0,-1
1097.01,0,0
1097.01,0,0
1097.02,0,1
1097.02,2,3
1097.02,4,3
1097.02,3,3
1097.02,3,1
1097.02,-1,0
1097.02,1,3
1097.03,5,6
1097.03,5,2
1097.03,0,-1
1097.03,-2,-1
1097.03,0,2
1097.04,3,3
1097.04,2,1
1097.04,0,-1
1097.04,0,1
1097.04,3,4
1097.04,4,2
1097.04,2,2
1097.05,0,0
1097.05,0,0
1097.05,0,1
1097.05,1,2
1097.05,4,4
1097.06,4,3
1097.06,1,0
1097.06,0,1
1097.06,0,1
1097.06,2,2
1097.06,1,1
1097.06,2,3
1097.07,3,3
1097.07,2,1
1097.07,0,0
1097.07,1,3
1097.07,4,2
1097.08,0,0
1097.08,2,1
1097.08,0,0
1097.08,-1,0
1097.08,0,1
1097.08,2,2
1097.08,2,2
1097.09,3,3
1097.09,3,2
1097.09,2,0
1097.09,0,0
1097.1,0,0
1097.1,2,4
1097.1,5,6
1097.1,5,1
1097.1,-1,-2
1097.11,-1,0
1097.11,1,3
1097.11,3,2
1097.11,0,1
1097.11,3,4
1097.11,3,1
1097.11,0,1
1097.12,1,0
1097.12,0,1
1097.12,2,3
1097.12,3,3
1097.12,2,2
1097.13,2,2
1097.13,2,2
1097.13,0,1
1097.13,0,0
1097.13,0,0
1097.13,0,0
1097.13,1,2
1097.14,3,2
1097.14,1,0
1097.14,0,0
1097.14,2,3
1097.14,3,3
1097.15,6,6
1097.15,3,0
1097.15,-1,0
1097.15,0,0
1097.15,0,0
1097.15,1,3
1097.15,4,3
1097.16,2,1
1097.16,0,0
1097.16,1,3
1097.16,4,3
1097.17,0,0
1097.17,0,0
1097.17,0,1
1097.17,1,1
1097.17,2,3
1097.17,3,3
1097.17,2,2
1097.18,0,0
1097.18,0,0
1097.18,0,2
1097.18,4,4
1097.18,2,0
1097.19,0,1
1097.19,2,2
1097.19,2,2
1097.19,1,2
1097.19,2,1
1097.2,0,0
1097.2,0,1
1097.2,2,2
1097.2,1,1
1097.2,1,1
1097.2,2,3
1097.2,4,3
1097.21,3,2
1097.21,2,1
1097.21,1,0
1097.21,0,0
1097.21,0,0
1097.22,1,2
1097.22,2,2
1097.22,2,2
1097.22,2,2
1097.22,2,3
1097.22,2,1
1097.22,0,0
1097.23,0,0
1097.23,1,1
1097.23,1,2
1097.23,2,3
1097.24,2,2
1097.24,2,3
1097.24,4,3
1097.24,1,2
1097.24,2,1
1097.24,0,0
1097.24,1,3
1097.25,2,1
1097.25,0,0
1097.25,0,0
1097.25,0,0
1097.25,1,2
1097.26,2,2
1097.26,2,3
1097.26,3,3
1097.26,1,1
1097.26,1,1
1097.26,1,0
1097.26,1,0
1097.27,0,1
1097.27,1,1
1097.27,2,2
1097.27,3,3
1097.27,2,2
1097.28,3,3
1097.28,2,1
1097.28,0,0
1097.28,0,0
1097.29,0,0
1097.29,1,2
1097.29,4,4
1097.29,4,5
1097.29,4,2
1097.29,0,-1
1097.29,0,0
1097.29,0,1
1097.3,1,2
1097.3,2,2
1097.3,2,1
1097.3,1,1
1097.31,1,1
1097.31,2,2
1097.31,3,3
1097.31,2,1
1097.31,1,1
1097.31,1,1
1097.31,1,2
1097.32,2,1
1097.32,1,1
1097.32,2,3
1097.32,3,1
1097.32,1,0
1097.33,1,2
1097.33,2,2
1097.33,2,2
1097.33,2,2
1097.33,2,3
1097.33,2,1
1097.33,0,0
1097.34,0,1
1097.34,1,1
1097.34,2,2
1097.34,1,1
1097.34,1,2
1097.35,3,3
1097.35,1,0
1097.35,0,0
1097.35,1,2
1097.35,2,2
1097.35,3,4
1097.35,6,3
1097.36,2,1
1097.36,0,0
1097.36,0,0
1097.36,2,2
1097.37,2,1
1097.37,0,0
1097.37,1,2
1097.37,2,2
1097.37,3,2
1097.38,2,0
1097.38,0,-1
1097.38,-1,0
1097.38,4,6
1097.38,6,4
1097.38,3,1
1097.38,0,0
1097.39,0,1
1097.39,2,2
1097.39,3,2
1097.39,1,1
1097.39,0,0
1097.4,1,1
1097.4,1,1
1097.4,1,1
1097.4,1,2
1097.4,2,3
1097.4,3,2
1097.4,1,1
1097.41,1,1
1097.41,0,0
1097.41,1,2
1097.41,2,1
1097.41,0,0
1097.42,0,1
1097.42,5,8
1097.42,7,2
1097.42,0,-1
1097.42,0,1
1097.42,1,2
1097.42,2,2
1097.43,1,1
1097.43,1,2
1097.43,1,0
1097.43,0,0
1097.44,0,0
1097.44,1,2
1097.44,2,3
1097.44,3,3
1097.44,4,3
1097.45,3,3
1097.45,1,0
1097.45,0,0
1097.45,0,0
1097.45,0,0
1097.45,2,3
1097.45,3,1
1097.46,0,0
1097.46,1,3
1097.46,4,5
1097.46,5,3
1097.46,2,0
1097.47,0,0
1097.47,0,0
1097.47,1,1
1097.47,2,2
1097.47,2,2
1097.47,2,2
1097.47,1,1
1097.48,2,3
1097.48,2,1
1097.48,0,0
1097.48,0,1
1097.48,2,5
1097.49,7,8
1097.49,6,1
1097.49,-1,-2
1097.49,-2,-1
1097.49,0,0
1097.49,1,3
1097.49,3,3
1097.5,3,2
1097.5,2,1
1097.5,1,2
1097.5,2,1
1097.51,0,0
1097.51,2,3
1097.51,3,4
1097.51,2,1
1097.51,1,1
1097.51,1,1
1097.51,0,0
1097.52,1,1
1097.52,1,1
1097.52,0,1
1097.52,1,2
1097.52,2,2
1097.53,2,3
1097.53,2,2
1097.53,2,1
1097.53,1,0
1097.53,2,1
1097.54,1,1
1097.54,0,2
1097.54,2,1
1097.54,1,0
1097.54,1,1
1097.54,2,2
1097.54,3,1
1097.55,1,1
1097.55,0,1
1097.55,1,1
1097.55,1,1
1097.56,2,3
1097.56,4,3
1097.56,2,1
1097.56,1,0
1097.56,1,1
1097.56,0,0
1097.56,2,1
1097.56,1,1
1097.57,1,1
1097.57,2,4
1097.57,3,1
1097.57,0,0
1097.58,1,1
1097.58,1,0
1097.58,1,1
1097.58,1,2
1097.58,3,3
1097.58,1,1
1097.58,1,1
1097.59,0,0
1097.59,0,0
1097.59,2,3
1097.59,2,3
1097.59,3,3
1097.6,1,1
1097.6,1,1
1097.6,0,1
1097.6,2,2
1097.6,2,2
1097.6,1,1
1097.6,0,0
1097.61,1,1
1097.61,1,1
1097.61,1,0
1097.61,1,1
1097.61,1,1
1097.62,1,1
1097.62,1,1
1097.62,1,2
1097.62,3,3
1097.63,3,2
1097.63,1,0
1097.63,0,2
1097.63,1,1
1097.63,1,0
1097.63,1,1
1097.63,1,1
1097.64,1,1
1097.64,1,2
1097.64,3,3
1097.64,3,2
1097.64,1,0
1097.65,0,0
1097.65,0,1
1097.65,3,5
1097.65,5,2
1097.65,0,0
1097.65,0,1
1097.65,2,1
1097.66,0,1
1097.66,1,2
1097.66,2,2
1097.66,1,0
1097.66,0,1
1097.67,2,4
1097.67,4,5
1097.67,2,0
1097.67,0,1
1097.67,1,1
1097.67,1,2
1097.67,2,2
1097.68,2,2
1097.68,2,2
1097.68,1,2
1097.68,2,1
1097.68,0,0
1097.69,0,1
1097.69,1,1
1097.69,1,2
1097.69,1,1
1097.69,1,1
1097.69,1,2
1097.69,2,2
1097.7,2,2
1097.7,2,2
1097.7,1,2
1097.7,2,2
1097.71,2,1
1097.71,1,2
1097.71,2,2
1097.71,1,1
1097.71,0,0
1097.72,0,1
1097.72,2,2
1097.72,2,2
1097.72,2,0
1097.72,0,0
1097.72,1,2
1097.72,5,5
1097.73,4,2
1097.73,0,0
1097.73,1,1
1097.73,1,1
1097.73,0,0
1097.74,1,1
1097.74,1,1
1097.74,0,0
1097.74,2,3
1097.74,3,3
1097.74,3,2
1097.74,0,1
1097.75,1,2
1097.75,2,2
1097.75,2,2
1097.75,2,1
1097.75,1,1
1097.76,1,1
1097.76,1,2
1097.76,2,1
1097.76,0,0
1097.76,0,0
1097.76,0,1
1097.76,2,3
1097.77,4,3
1097.77,2,1
1097.77,1,0
1097.77,0,1
1097.78,2,2
1097.78,2,2
1097.78,1,1
1097.78,1,1
1097.78,1,1
1097.79,2,2
1097.79,2,2
1097.79,2,1
1097.79,1,1
1097.79,1,1
1097.79,1,2
1097.79,2,1
1097.8,2,5
1097.8,4,2
1097.8,1,0
1097.8,0,0
1097.8,1,1
1097.81,2,2
1097.81,2,2
1097.81,2,1
1097.81,0,1
1097.81,1,1
1097.81,2,2
1097.81,1,1
1097.82,1,1
1097.82,2,2
1097.82,3,3
1097.82,1,1
1097.83,1,1
1097.83,1,1
1097.83,1,1
1097.83,1,0
1097.83,1,0
1097.83,1,2
1097.83,4,3
1097.83,3,2
1097.84,0,0
1097.84,0,1
1097.84,1,1
1097.84,1,1
1097.85,0,2
1097.85,1,1
1097.85,1,1
1097.85,1,1
1097.85,1,2
1097.85,2,3
1097.85,2,2
1097.86,1,1
1097.86,1,1
1097.86,2,2
1097.86,2,2
1097.86,2,1
1097.87,1,1
1097.87,2,2
1097.87,2,2
1097.87,2,2
1097.87,1,0
1097.88,0,1
1097.88,2,3
1097.88,3,5
1097.88,4,2
1097.88,0,0
1097.88,1,2
1097.88,3,2
1097.89,1,1
1097.89,1,0
1097.89,0,0
1097.89,0,0
1097.9,0,2
1097.9,2,2
1097.9,3,2
1097.9,2,2
1097.9,2,1
1097.9,0,0
1097.9,2,2
1097.91,3,3
1097.91,3,1
1097.91,1,1
1097.91,1,1
1097.91,1,1
1097.92,1,0
1097.92,0,0
1097.92,0,1
1097.92,3,3
1097.92,2,1
1097.92,2,2
1097.92,2,1
1097.93,1,2
1097.93,3,2
1097.93,2,1
1097.93,0,0
1097.93,0,1
1097.94,2,2
1097.94,1,1
1097.94,2,3
1097.94,3,2
1097.94,1,1
1097.94,1,1
1097.94,1,0
1097.95,0,0
1097.95,0,0
1097.95,2,2
1097.95,2,2
1097.95,3,3
1097.96,4,3
1097.96,1,2
1097.96,2,2
1097.96,1,1
1097.97,1,1
1097.97,1,1
1097.97,1,0
1097.97,0,1
1097.97,2,2
1097.97,2,1
1097.97,1,1
1097.98,1,2
1097.98,2,3
1097.98,3,1
1097.98,1,2
1097.98,2,1
1097.99,1,1
1097.99,1,1
1097.99,1,0
1097.99,0,1
1097.99,1,2
1097.99,1,1
1097.99,1,2
1098,2,3
1098,3,1
1098,1,1
1098,1,1
1098,2,3
1098.01,2,2
1098.01,2,1
1098.01,0,0
1098.01,1,1
1098.01,1,1
1098.01,1,1
1098.01,1,1
1098.02,1,1
1098.02,1,0
1098.02,1,1
1098.02,1,2
1098.02,2,1
1098.03,1,1
1098.03,1,1
1098.03,2,4
1098.03,4,2
1098.03,1,0
1098.03,0,1
1098.03,1,1
1098.04,1,1
1098.04,0,1
1098.04,1,2
1098.04,2,1
1098.05,0,0
1098.05,0,0
1098.05,1,2
1098.05,2,2
1098.05,1,1
1098.06,1,2
1098.06,2,2
1098.06,2,2
1098.06,2,2
1098.06,2,2
1098.06,1,1
1098.06,0,1
1098.07,1,1
1098.07,1,1
1098.07,2,3
1098.07,3,2
1098.07,2,2
1098.08,2,1
1098.08,1,0
1098.08,0,0
1098.08,1,1
1098.08,1,1
1098.08,2,3
1098.08,3,2
1098.09,2,1
1098.09,0,0
1098.09,1,1
1098.09,1,1
1098.09,1,1
1098.1,2,2
1098.1,2,2
1098.1,1,1
1098.1,1,2
1098.1,2,2
1098.1,1,1
1098.1,1,2
1098.11,2,2
1098.11,2,2
1098.11,2,2
1098.11,1,0
1098.12,0,0
1098.12,2,3
1098.12,4,5
1098.12,4,2
1098.12,0,0
1098.12,0,1
1098.12,1,2
1098.13,2,2
1098.13,1,1
1098.13,2,2
1098.13,2,2
1098.13,1,2
1098.14,2,1
1098.14,1,0
1098.14,1,2
1098.14,3,4
1098.14,3,1
1098.15,0,0
1098.15,1,1
1098.15,1,1
1098.15,1,0
1098.15,0,0
1098.15,0,0
1098.15,2,3
1098.16,3,3
1098.16,3,2
1098.16,2,1
1098.16,1,1
1098.17,1,1
1098.17,1,2
1098.17,2,2
1098.17,1,1
1098.17,1,0
1098.17,0,0
1098.17,2,2
1098.18,1,1
1098.18,1,1
1098.18,1,1
1098.18,1,1
1098.18,1,1
1098.19,0,1
1098.19,2,2
1098.19,2,2
1098.19,2,2
1098.19,2,1
1098.19,0,0
1098.19,2,5
1098.2,5,3
1098.2,1,0
1098.2,0,0
1098.2,0,1
1098.2,1,1
1098.21,1,1
1098.21,1,1
1098.21,1,1
1098.21,1,0
1098.21,1,1
1098.22,1,0
1098.22,0,1
1098.22,2,3
1098.22,4,4
1098.22,3,1
1098.22,1,1
1098.22,1,1
1098.23,1,0
1098.23,0,2
1098.23,2,3
1098.23,2,0
1098.24,0,0
1098.24,1,1
1098.24,1,1
1098.24,1,1
1098.24,1,0
1098.24,1,1
1098.24,1,1
1098.25,1,2
1098.25,2,2
1098.25,2,1
1098.25,1,2
1098.25,3,3
1098.26,2,2
1098.26,1,1
1098.26,0,0
1098.26,1,1
1098.26,1,2
1098.26,2,3
1098.26,2,1
1098.27,0,1
1098.27,2,2
1098.27,2,1
1098.27,2,2
1098.27,2,2
1098.28,1,1
1098.28,1,1
1098.28,1,0
1098.28,0,0
1098.28,0,2
1098.28,5,6
1098.28,5,2
1098.29,0,0
1098.29,1,1
1098.29,2,2
1098.29,2,2
1098.29,1,1
1098.3,2,1
1098.3,0,0
1098.3,1,1
1098.3,0,0
1098.31,1,1
1098.31,2,2
1098.31,2,2
1098.31,2,2
1098.31,2,2
1098.31,2,2
1098.31,1,1
1098.32,2,1
1098.32,1,1
1098.32,1,0
1098.32,0,1
1098.32,1,2
1098.33,2,1
1098.33,1,2
1098.33,2,2
1098.33,2,1
1098.33,1,2
1098.33,3,2
1098.33,2,1
1098.34,1,1
1098.34,1,1
1098.34,1,1
1098.34,2,1
1098.34,1,1
1098.35,2,2
1098.35,2,2
1098.35,3,2
1098.35,1,1
1098.35,0,0
1098.35,1,1
1098.35,1,1
1098.36,1,2
1098.36,2,1
1098.36,1,1
1098.36,1,2
1098.36,3,5
1098.37,4,2
1098.37,1,0
1098.37,0,0
1098.37,0,1
1098.37,2,4
1098.37,3,1
1098.37,0,0
1098.38,0,1
1098.38,1,1
1098.38,2,2
1098.38,2,2
1098.39,3,2
1098.39,0,1
1098.39,1,1
1098.39,1,1
1098.39,1,2
1098.4,3,3
1098.4,2,1
1098.4,0,1
1098.4,2,2
1098.4,1,1
1098.4,0,0
1098.4,1,1
1098.41,2,3
1098.41,3,2
1098.41,2,2
1098.41,2,1
1098.41,1,1
1098.42,0,0
1098.42,1,1
1098.42,2,2
1098.42,3,2
1098.42,1,1
1098.42,0,1
1098.42,1,1
1098.43,1,1
1098.43,1,1
1098.43,0,0
1098.43,0,0
1098.44,1,3
1098.44,4,4
1098.44,0,0
1098.44,0,0
1098.44,2,3
1098.44,4,5
1098.44,3,2
1098.45,0,0
1098.45,0,1
1098.45,1,1
1098.45,0,1
1098.45,1,1
1098.46,1,1
1098.46,0,1
1098.46,2,2
1098.46,2,2
1098.46,2,1
1098.46,1,1
1098.46,2,2
1098.47,2,2
1098.47,1,1
1098.47,1,2
1098.47,2,2
1098.47,2,2
1098.48,1,1
1098.48,1,2
1098.48,3,2
1098.48,2,2
1098.48,2,1
1098.49,0,0
1098.49,0,1
1098.49,2,2
1098.49,2,2
1098.49,1,2
1098.49,2,3
1098.49,1,1
1098.5,0,1
1098.5,0,0
1098.5,1,2
1098.5,2,3
1098.51,2,2
1098.51,1,1
1098.51,1,1
1098.51,1,2
1098.51,3,3
1098.51,2,1
1098.51,0,0
1098.52,0,1
1098.52,1,2
1098.52,2,2
1098.52,1,1
1098.52,0,0
1098.53,1,2
1098.53,4,7
1098.53,7,3
1098.53,0,-1
1098.53,-1,0
1098.53,0,1
1098.53,2,2
1098.54,1,1
1098.54,0,0
1098.54,1,0
1098.54,0,0
1098.54,2,2
1098.55,2,3
1098.55,3,3
1098.55,3,2
1098.55,1,1
1098.55,1,2
1098.55,2,2
1098.56,2,2
1098.56,2,1
1098.56,2,2
1098.56,1,1
1098.56,0,0
1098.56,0,1
1098.57,2,2
1098.57,2,2
1098.57,1,2
1098.57,2,3
1098.58,2,2
1098.58,1,1
1098.58,1,2
1098.58,1,0
1098.58,0,0
1098.58,1,3
1098.58,3,2
1098.59,1,2
1098.59,3,3
1098.59,2,1
1098.59,1,1
1098.59,1,1
1098.6,1,1
1098.6,1,1
1098.6,1,1
1098.6,1,1
1098.6,1,0
1098.6,1,0
1098.6,0,0
1098.61,2,3
1098.61,4,6
1098.61,5,1
1098.61,0,-1
1098.61,0,0
1098.62,2,2
1098.62,2,1
1098.62,1,2
1098.62,2,3
1098.62,2,2
1098.62,2,1
1098.62,1,0
1098.63,1,1
1098.63,1,2
1098.63,2,2
1098.63,3,2
1098.64,2,1
1098.64,0,0
1098.64,1,1
1098.64,1,0
1098.64,0,1
1098.65,2,2
1098.65,3,3
1098.65,2,2
1098.65,2,1
1098.65,1,1
1098.65,2,2
1098.65,2,2
1098.66,2,2
1098.66,2,2
1098.66,1,1
1098.66,1,1
1098.66,0,0
1098.67,0,1
1098.67,2,3
1098.67,4,2
1098.67,1,0
1098.67,0,1
1098.67,2,2
1098.67,2,2
1098.68,1,1
1098.68,1,1
1098.68,1,2
1098.68,2,1
1098.68,1,1
1098.69,1,2
1098.69,4,5
1098.69,6,2
1098.69,0,-1
1098.69,0,0
1098.69,0,1
1098.69,1,1
1098.7,0,0
1098.7,1,1
1098.7,2,2
1098.7,2,2
1098.71,2,2
1098.71,2,2
1098.71,2,1
1098.71,1,1
1098.71,2,3
1098.71,3,2
1098.71,2,1
1098.72,1,1
1098.72,0,0
1098.72,0,1
1098.72,2,3
1098.72,2,1
1098.73,0,0
1098.73,0,2
1098.73,2,2
1098.73,3,3
1098.73,3,2
1098.74,2,1
1098.74,1,0
1098.74,0,1
1098.74,2,1
1098.74,1,0
1098.74,0,0
1098.74,1,1
1098.75,2,2
1098.75,3,3
1098.75,2,1
1098.75,1,0
1098.75,1,1
1098.76,1,2
1098.76,3,2
1098.76,1,1
1098.76,1,2
1098.76,2,3
1098.76,2,1
1098.76,1,1
1098.77,1,1
1098.77,1,1
1098.77,1,0
1098.77,1,2
1098.78,2,2
1098.78,1,0
1098.78,0,0
1098.78,0,1
1098.78,2,2
1098.78,2,2
1098.78,1,1
1098.79,1,2
1098.79,3,3
1098.79,2,1
1098.79,1,1
1098.79,0,1
1098.8,1,1
1098.8,0,1
1098.8,2,2
1098.8,2,2
1098.8,2,1
1098.8,2,2
1098.8,3,3
1098.81,3,0
1098.81,-1,0
1098.81,0,1
1098.81,2,3
1098.81,3,3
1098.82,2,1
1098.82,1,0
1098.82,0,0
1098.82,0,1
1098.83,2,2
1098.83,2,2
1098.83,1,2
1098.83,3,2
1098.83,1,1
1098.83,0,1
1098.83,2,2
1098.83,1,1
1098.84,2,3
1098.84,2,2
1098.84,2,2
1098.84,2,1
1098.85,0,0
1098.85,0,0
1098.85,1,2
1098.85,2,2
1098.85,3,2
1098.85,1,1
1098.85,0,1
1098.86,1,0
1098.86,0,0
1098.86,3,5
1098.86,5,3
1098.86,1,0
1098.87,0,0
1098.87,1,1
1098.87,1,2
1098.87,1,1
1098.87,1,1
1098.87,1,1
1098.87,1,1
1098.88,0,1
1098.88,1,1
1098.88,2,2
1098.88,1,1
1098.88,1,1
1098.89,2,3
1098.89,3,3
1098.89,2,1
1098.89,1,0
1098.89,0,0
1098.9,0,1
1098.9,2,3
1098.9,2,1
1098.9,1,2
1098.9,2,2
1098.9,3,2
1098.91,1,1
1098.91,0,0
1098.91,1,1
1098.91,1,1
1098.91,1,2
1098.92,2,2
1098.92,2,2
1098.92,2,2
1098.92,2,1
1098.92,1,1
1098.92,1,1
1098.92,1,2
1098.93,2,2
1098.93,2,1
1098.93,1,1
1098.93,1,2
1098.93,2,2
1098.94,2,1
1098.94,1,0
1098.94,1,3
1098.94,5,6
1098.94,4,0
1098.94,-1,0
1098.94,0,0
1098.95,0,0
1098.95,0,2
1098.95,4,4
1098.95,2,2
1098.95,1,1
1098.96,1,0
1098.96,0,1
1098.96,1,2
1098.96,2,2
1098.96,2,2
1098.96,2,2
1098.96,2,2
1098.97,2,1
1098.97,1,1
1098.97,1,1
1098.97,2,1
1098.98,1,1
1098.98,1,1
1098.98,1,0
1098.98,0,1
1098.98,2,2
1098.98,2,2
1098.99,2,2
1098.99,2,2
1098.99,2,1
1098.99,1,1
1098.99,0,1
1098.99,1,1
1099,2,2
1099,2,2
1099,3,2
1099,2,2
1099,2,1
1099.01,1,1
1099.01,1,0
1099.01,0,0
1099.01,1,1
1099.01,2,2
1099.01,3,2
1099.01,1,1
1099.02,1,2
1099.02,3,3
1099.02,3,2
1099.02,1,0
1099.02,0,0
1099.03,0,1
1099.03,1,2
1099.03,2,4
1099.03,3,1
1099.03,0,0
1099.03,1,2
1099.03,3,3
1099.04,2,2
1099.04,1,1
1099.04,0,0
1099.04,1,1
1099.05,1,2
1099.05,2,1
1099.05,1,1
1099.05,1,1
1099.05,2,2
1099.05,2,2
1099.05,2,1
1099.06,1,1
1099.06,2,2
1099.06,3,2
1099.06,1,0
1099.06,0,0
1099.07,1,2
1099.07,2,3
1099.07,3,1
1099.07,1,1
1099.07,1,0
1099.08,1,1
1099.08,1,1
1099.08,1,2
1099.08,2,1
1099.08,1,1
1099.08,2,3
1099.08,4,2
1099.09,1,1
1099.09,1,1
1099.09,1,0
1099.09,0,0
1099.1,2,2
1099.1,2,2
1099.1,2,2
1099.1,2,2
1099.1,2,1
1099.1,1,2
1099.1,2,2
1099.1,1,0
1099.11,0,0
1099.11,0,0
1099.11,2,4
1099.11,4,2
1099.12,0,0
1099.12,0,1
1099.12,1,2
1099.12,2,2
1099.12,1,1
1099.12,2,1
1099.12,2,2
1099.13,2,1
1099.13,1,1
1099.13,1,1
1099.13,2,2
1099.13,2,2
1099.14,2,2
1099.14,1,1
1099.14,1,2
1099.14,2,2
1099.14,2,2
1099.14,2,2
1099.14,1,1
1099.15,1,1
1099.15,0,1
1099.15,1,1
1099.15,2,2
1099.15,2,2
1099.16,2,1
1099.16,1,1
1099.16,2,2
1099.16,2,1
1099.17,1,1
1099.17,2,2
1099.17,2,2
1099.17,2,2
1099.17,2,1
1099.17,2,2
1099.17,2,1
1099.18,1,1
1099.18,0,0
1099.18,0,0
1099.18,0,2
1099.18,3,4
1099.19,5,3
1099.19,1,1
1099.19,0,0
1099.19,0,0
1099.19,0,1
1099.19,4,7
1099.19,6,3
1099.2,0,0
1099.2,0,0
1099.2,1,1
1099.2,2,2
1099.2,2,1
1099.21,1,2
1099.21,2,2
1099.21,2,2
1099.21,2,2
1099.21,1,1
1099.21,1,2
1099.21,2,2
1099.22,2,2
1099.22,1,2
1099.22,2,1
1099.22,1,2
1099.22,1,1
1099.23,1,2
1099.23,3,3
1099.23,1,1
1099.23,1,1
1099.23,1,1
1099.23,1,0
1099.23,1,1
1099.24,1,1
1099.24,0,2
1099.24,2,1
1099.24,1,1
1099.25,1,2
1099.25,2,2
1099.25,1,0
1099.25,0,0
1099.25,0,1
1099.26,1,2
1099.26,2,2
1099.26,2,3
1099.26,3,1
1099.26,1,0
1099.26,1,2
1099.26,2,2
1099.27,1,1
1099.27,2,2
1099.27,3,2
1099.27,1,1
1099.27,1,1
1099.28,1,1
1099.28,0,1
1099.28,1,0
1099.28,0,1
1099.28,2,3
1099.28,4,2
1099.28,1,0
1099.29,1,1
1099.29,1,1
1099.29,0,2
1099.29,2,2
1099.29,2,1
1099.3,0,0
1099.3,0,1
1099.3,1,2
1099.3,2,1
1099.3,1,1
1099.3,1,2
1099.3,2,2
1099.31,2,3
1099.31,2,2
1099.31,1,0
1099.31,0,1
1099.32,2,2
1099.32,2,2
1099.32,1,1
1099.32,1,1
1099.32,2,3
1099.33,3,2
1099.33,1,1
1099.33,1,1
1099.33,0,1
1099.33,1,1
1099.33,0,1
1099.33,1,1
1099.34,1,2
1099.34,3,3
1099.34,1,1
1099.34,1,1
1099.34,2,2
1099.35,2,2
1099.35,2,1
1099.35,1,1
1099.35,1,1
1099.35,1,0
1099.35,0,0
1099.35,0,1
1099.36,2,2
1099.36,2,2
1099.36,2,2
1099.36,1,2
1099.37,2,2
1099.37,3,1
1099.37,0,1
1099.37,1,1
1099.37,1,1
1099.37,1,2
1099.37,1,1
1099.38,1,0
1099.38,1,2
1099.38,3,5
1099.38,5,3
1099.38,1,0
1099.39,0,0
1099.39,0,1
1099.39,2,2
1099.39,2,1
1099.39,1,1
1099.39,0,1
1099.39,1,2
1099.4,2,2
1099.4,2,2
1099.4,2,2
1099.4,1,1
1099.4,1,2
1099.41,2,2
1099.41,1,1
1099.41,1,1
1099.41,0,0
1099.41,1,1
1099.42,2,2
1099.42,2,1
1099.42,1,0
1099.42,0,1
1099.42,2,2
1099.42,3,4
1099.42,4,2
1099.43,1,1
1099.43,2,1
1099.43,0,0
1099.43,1,1
1099.44,1,1
1099.44,1,2
1099.44,3,3
1099.44,2,1
1099.44,0,1
1099.44,1,1
1099.44,1,1
1099.45,1,1
1099.45,2,1
1099.45,1,1
1099.45,0,0
1099.45,1,0
1099.46,0,1
1099.46,2,2
1099.46,2,2
1099.46,2,1
1099.46,1,1
1099.46,2,4
1099.46,3,2
1099.47,1,0
1099.47,0,0
1099.47,1,2
1099.47,2,2
1099.47,2,1
1099.48,1,1
1099.48,1,1
1099.48,2,2
1099.48,2,2
1099.48,1,1
1099.48,1,1
1099.48,1,2
1099.49,2,3
1099.49,3,1
1099.49,1,1
1099.49,1,1
1099.49,1,1
1099.5,1,1
1099.5,1,0
1099.5,0,0
1099.5,0,1
1099.51,1,2
1099.51,3,3
1099.51,3,2
1099.51,1,1
1099.51,1,1
1099.51,0,0
1099.51,1,1
1099.52,1,2
1099.52,3,3
1099.52,2,1
1099.52,0,0
1099.52,1,2
1099.53,2,2
1099.53,2,2
1099.53,1,1
1099.53,1,1
1099.53,1,0
1099.53,1,1
1099.53,1,2
1099.54,2,2
1099.54,2,2
1099.54,2,2
1099.54,2,1
1099.54,1,1
1099.55,1,1
1099.55,2,2
1099.55,2,2
1099.55,1,1
1099.55,1,0
1099.55,0,1
1099.55,2,3
1099.56,5,9
1099.56,7,1
1099.56,-2,-2
1099.56,-1,0
1099.57,0,1
1099.57,1,2
1099.57,2,3
1099.57,3,1
1099.57,1,1
1099.57,1,1
1099.57,1,1
1099.57,2,2
1099.58,2,2
1099.58,2,2
1099.58,2,2
1099.58,2,2
1099.59,2,2
1099.59,2,2
1099.59,1,1
1099.59,1,1
1099.59,1,0
1099.6,0,0
1099.6,2,2
1099.6,2,2
1099.6,2,2
1099.6,1,2
1099.6,2,1
1099.6,1,1
1099.61,1,0
1099.61,0,1
1099.61,2,2
1099.61,2,2
1099.61,1,1
1099.62,1,1
1099.62,2,2
1099.62,1,1
1099.62,1,2
1099.62,3,3
1099.62,2,2
1099.62,3,3
1099.63,1,0
1099.63,0,0
1099.63,0,0
1099.63,0,1
1099.64,1,2
1099.64,2,2
1099.64,2,2
1099.64,2,2
1099.64,2,2
1099.64,2,1
1099.64,1,1
1099.65,1,1
1099.65,2,5
1099.65,5,3
1099.65,1,0
1099.65,0,0
1099.66,0,1
1099.66,1,0
1099.66,0,0
1099.66,0,1
1099.66,2,3
1099.66,3,3
1099.66,2,1
1099.67,1,1
1099.67,0,1
1099.67,1,1
1099.67,2,2
1099.67,2,2
1099.68,2,3
1099.68,2,1
1099.68,0,0
1099.68,0,0
1099.68,1,2
1099.69,3,3
1099.69,3,2
1099.69,1,1
1099.69,0,1
1099.69,1,0
1099.69,0,0
1099.69,2,2
1099.7,3,3
1099.7,3,2
1099.7,1,1
1099.7,1,1
1099.71,1,2
1099.71,2,2
1099.71,2,2
1099.71,2,2
1099.71,1,1
1099.71,1,1
1099.71,1,1
1099.72,1,1
1099.72,0,1
1099.72,2,2
1099.72,1,1
1099.72,2,3
1099.73,2,2
1099.73,2,1
1099.73,0,0
1099.73,0,1
1099.73,3,4
1099.73,4,2
1099.73,1,1
1099.74,1,0
1099.74,0,0
1099.74,1,2
1099.74,2,2
1099.74,2,2
1099.75,2,1
1099.75,0,1
1099.75,1,1
1099.75,2,2
1099.76,1,1
1099.76,1,1
1099.76,2,2
1099.76,3,4
1099.76,3,3
1099.76,2,1
1099.76,1,0
1099.76,0,0
1099.77,0,1
1099.77,2,2
1099.77,2,2
1099.77,0,0
1099.78,0,1
1099.78,1,1
1099.78,1,1
1099.78,2,2
1099.78,2,1
1099.78,1,1
1099.78,1,2
1099.79,2,3
1099.79,2,1
1099.79,1,1
1099.79,1,2
1099.79,2,2
1099.8,2,2
1099.8,2,2
1099.8,2,1
1099.8,1,1
1099.8,0,1
1099.8,2,4
1099.8,3,2
1099.81,0,0
1099.81,1,1
1099.81,1,1
1099.81,0,1
1099.81,1,1
1099.82,2,2
1099.82,2,2
1099.82,1,1
1099.82,1,3
1099.82,4,2
1099.82,1,0
1099.82,0,0
1099.83,1,1
1099.83,2,2
1099.83,2,2
1099.83,2,2
1099.84,2,2
1099.84,1,1
1099.84,1,1
1099.84,2,2
1099.84,2,2
1099.85,2,1
1099.85,1,1
1099.85,1,2
1099.85,2,3
1099.85,2,2
1099.85,1,1
1099.85,0,0
1099.86,0,0
1099.86,1,1
1099.86,2,3
1099.86,4,3
1099.86,2,1
1099.87,0,0
1099.87,0,1
1099.87,2,1
1099.87,1,1
1099.87,1,2
1099.87,3,3
1099.87,1,1
1099.88,1,0
1099.88,1,1
1099.88,1,2
1099.88,2,2
1099.88,2,2
1099.89,3,2
1099.89,2,2
1099.89,1,1
1099.89,1,1
1099.89,0,0
1099.89,0,1
1099.89,2,2
1099.9,2,2
1099.9,2,2
1099.9,2,2
1099.9,2,2
1099.91,1,1
1099.91,1,0
1099.91,0,2
1099.91,2,1
1099.91,1,0
1099.91,1,3
1099.91,3,3
1099.92,2,2
1099.92,1,0
1099.92,0,1
1099.92,1,1
1099.92,1,1
1099.93,1,1
1099.93,1,0
1099.93,1,2
1099.93,2,2
1099.93,2,1
1099.94,2,2
1099.94,2,1
1099.94,1,1
1099.94,2,2
1099.94,1,1
1099.94,1,2
1099.94,3,3
1099.95,2,2
1099.95,1,0
1099.95,0,1
1099.95,1,1
1099.95,2,1
1099.96,1,1
1099.96,1,2
1099.96,2,2
1099.96,2,2
1099.96,3,1
1099.96,1,1
1099.96,0,1
1099.97,1,1
1099.97,1,1
1099.97,2,2
1099.97,3,3
1099.98,2,1
1099.98,1,1
1099.98,1,1
1099.98,1,1
1099.98,1,1
1099.98,2,1
1099.98,0,0
1099.99,0,0
1099.99,1,1
1099.99,1,2
1099.99,3,3
1099.99,2,2
1100,1,1
1100,1,1
1100,3,5
1100,5,2
1100,0,0
1100.01,-1,0
1100.01,0,1
1100.01,2,2
1100.01,2,1
1100.01,1,2
1100.01,3,4
1100.01,3,3
1100.02,2,0
1100.02,0,-1
1100.02,0,1
1100.02,1,2
1100.03,2,2
1100.03,2,2
1100.03,2,2
1100.03,2,2
1100.03,1,1
1100.03,2,2
1100.03,2,2
1100.03,1,1
1100.04,1,2
1100.04,2,2
1100.04,2,2
1100.04,2,2
1100.05,1,1
1100.05,2,2
1100.05,1,0
1100.05,0,0
1100.05,1,2
1100.05,2,2
1100.05,2,2
1100.06,3,2
1100.06,1,1
1100.06,0,1
1100.06,1,2
1100.06,2,1
1100.07,0,0
1100.07,1,1
1100.07,2,1
1100.07,1,1
1100.07,2,2
1100.07,2,2
1100.07,1,2
1100.08,2,3
1100.08,2,1
1100.08,1,2
1100.08,1,0
1100.08,0,1
1100.09,2,3
1100.09,4,3
1100.09,2,1
1100.09,0,0
1100.09,0,1
1100.09,1,1
1100.09,1,1
1100.1,1,1
1100.1,1,1
1100.1,1,1
1100.1,1,2
1100.11,2,2
1100.11,3,4
1100.11,3,2
1100.11,1,0
1100.11,0,0
1100.12,0,1
1100.12,1,1
1100.12,1,1
1100.12,2,2
1100.12,2,2
1100.12,2,2
1100.12,2,1
1100.13,1,2
1100.13,2,2
1100.13,1,2
1100.13,2,2
1100.13,2,2
1100.14,1,1
1100.14,1,1
1100.14,1,1
1100.14,1,1
1100.14,0,1
1100.14,1,1
1100.14,1,1
1100.15,1,1
1100.15,1,2
1100.15,2,2
1100.15,2,1
1100.15,1,1
1100.16,1,2
1100.16,3,4
1100.16,2,1
1100.16,0,0
1100.16,0,1
1100.16,1,2
1100.16,3,3
1100.17,2,0
1100.17,0,0
1100.17,0,1
1100.17,1,2
1100.18,3,4
1100.18,3,1
1100.18,0,0
1100.18,1,1
1100.18,1,2
1100.19,2,2
1100.19,2,1
1100.19,1,2
1100.19,2,2
1100.19,2,1
1100.19,2,2
1100.19,2,1
1100.2,1,0
1100.2,1,1
1100.2,1,2
1100.2,3,4
1100.2,3,2
1100.21,1,1
1100.21,1,1
1100.21,1,1
1100.21,1,1
1100.21,1,1
1100.21,1,0
1100.21,0,1
1100.22,1,1
1100.22,2,2
1100.22,2,2
1100.22,2,2
1100.22,1,1
1100.23,1,2
1100.23,2,3
1100.23,3,3
1100.23,2,0
1100.23,0,0
1100.23,0,0
1100.23,1,1
1100.24,2,2
1100.24,3,3
1100.24,2,1
1100.24,1,1
1100.25,1,1
1100.25,2,2
1100.25,2,2
1100.25,2,3
1100.25,1,1
1100.25,1,1
1100.25,1,1
1100.26,1,1
1100.26,0,1
1100.26,1,1
1100.26,1,1
1100.26,1,1
1100.27,1,2
1100.27,1,1
1100.27,1,1
1100.27,1,1
1100.27,2,3
1100.28,4,4
1100.28,4,1
1100.28,0,0
1100.28,0,0
1100.28,1,1
1100.28,1,1
1100.28,1,2
1100.29,3,3
1100.29,2,2
1100.29,1,1
1100.29,1,0
1100.3,1,2
1100.3,1,1
1100.3,1,2
1100.3,2,2
1100.3,1,1
1100.3,1,2
1100.3,2,3
1100.31,3,1
1100.31,0,1
1100.31,1,2
1100.31,2,2
1100.31,2,2
1100.32,1,2
1100.32,2,2
1100.32,1,1
1100.32,0,0
1100.32,0,2
1100.32,2,3
1100.32,2,1
1100.33,0,0
1100.33,0,0
1100.33,0,1
1100.33,2,2
1100.33,2,3
1100.34,2,3
1100.34,2,2
1100.34,2,1
1100.34,1,1
1100.34,2,2
1100.34,3,2
1100.34,1,1
1100.35,1,1
1100.35,1,1
1100.35,0,1
1100.35,1,1
1100.35,1,1
1100.36,1,1
1100.36,1,0
1100.36,0,1
1100.36,3,5
1100.37,4,1
1100.37,0,0
1100.37,0,1
1100.37,1,2
1100.37,2,3
1100.37,2,2
1100.37,1,0
1100.38,0,0
1100.38,1,1
1100.38,1,1
1100.38,2,2
1100.38,2,2
1100.39,2,2
1100.39,2,2
1100.39,2,2
1100.39,1,1
1100.39,0,1
1100.39,1,2
1100.39,2,2
1100.4,2,2
1100.4,1,1
1100.4,1,1
1100.4,1,1
1100.4,2,2
1100.41,1,0
1100.41,0,1
1100.41,1,2
1100.41,2,2
1100.41,2,1
1100.41,1,1
1100.41,2,2
1100.42,2,2
1100.42,2,2
1100.42,3,2
1100.42,2,2
1100.42,2,2
1100.43,1,1
1100.43,1,1
1100.43,0,0
1100.43,0,1
1100.43,1,1
1100.43,2,2
1100.43,2,1
1100.44,1,1
1100.44,1,1
1100.44,3,6
1100.44,5,2
1100.45,0,0
1100.45,0,0
1100.45,1,1
1100.45,1,2
1100.45,2,1
1100.46,1,1
1100.46,2,2
1100.46,3,4
1100.46,2,1
1100.46,0,0
1100.46,1,1
1100.46,1,1
1100.47,1,1
1100.47,1,2
1100.47,2,1
1100.47,0,0
1100.47,0,1
1100.48,2,2
1100.48,2,1
1100.48,1,2
1100.48,2,2
1100.48,2,2
1100.48,1,0
1100.48,0,1
1100.49,2,2
1100.49,2,3
1100.49,3,2
1100.49,1,0
1100.5,0,1
1100.5,1,1
1100.5,2,3
1100.5,2,1
1100.5,0,0
1100.5,0,1
1100.5,2,2
1100.5,2,2
1100.51,2,2
1100.51,1,1
1100.51,2,1
1100.51,1,1
1100.52,1,1
1100.52,1,3
1100.52,3,3
1100.52,2,1
1100.52,1,1
1100.53,3,5
1100.53,5,1
1100.53,-1,-2
1100.53,-1,-1
1100.53,0,1
1100.53,2,2
1100.53,2,2
1100.54,2,2
1100.54,2,2
1100.54,2,2
1100.54,1,1
1100.54,1,1
1100.55,1,1
1100.55,1,1
1100.55,1,2
1100.55,2,2
1100.55,2,2
1100.55,2,2
1100.55,2,2
1100.56,1,0
1100.56,0,1
1100.56,1,2
1100.56,2,3
1100.57,3,1
1100.57,1,1
1100.57,1,1
1100.57,1,2
1100.57,2,2
1100.57,2,2
1100.57,1,1
1100.58,1,1
1100.58,1,1
1100.58,1,2
1100.58,3,3
1100.58,2,2
1100.59,2,2
1100.59,2,1
1100.59,1,0
1100.59,0,1
1100.59,1,1
1100.59,1,0
1100.59,1,1
1100.6,1,2
1100.6,2,2
1100.6,3,2
1100.6,1,0
1100.6,0,1
1100.61,2,2
1100.61,4,4
1100.61,4,1
1100.61,0,0
1100.61,0,2
1100.62,2,1
1100.62,0,0
1100.62,0,1
1100.62,2,3
1100.62,3,3
1100.62,2,1
1100.62,1,0
1100.63,0,1
1100.63,1,2
1100.63,3,2
1100.63,2,1
1100.64,1,0
1100.64,0,0
1100.64,0,1
1100.64,2,3
1100.64,3,3
1100.64,1,1
1100.64,1,1
1100.65,1,1
1100.65,0,1
1100.65,2,2
1100.65,2,2
1100.65,2,1
1100.66,0,0
1100.66,0,1
1100.66,1,1
1100.66,1,2
1100.66,2,3
1100.66,3,2
1100.66,2,1
1100.67,0,0
1100.67,1,1
1100.67,1,1
1100.67,2,2
1100.67,1,1
1100.68,0,0
1100.68,1,1
1100.68,1,1
1100.68,2,2
1100.68,2,2
1100.68,2,2
1100.68,1,0
1100.69,0,1
1100.69,2,4
1100.69,5,3
1100.69,2,1
1100.69,1,0
1100.7,0,0
1100.7,0,1
1100.7,1,1
1100.7,2,2
1100.71,2,2
1100.71,2,2
1100.71,3,1
1100.71,1,1
1100.71,1,1
1100.71,1,0
1100.71,1,1
1100.72,1,1
1100.72,1,1
1100.72,1,1
1100.72,1,1
1100.72,2,3
1100.73,4,3
1100.73,2,1
1100.73,0,0
1100.73,1,2
1100.73,2,2
1100.73,1,1
1100.73,1,1
1100.74,1,1
1100.74,0,1
1100.74,2,2
1100.74,2,2
1100.74,1,1
1100.75,1,2
1100.75,2,1
1100.75,1,1
1100.75,2,3
1100.75,3,2
1100.75,2,1
1100.75,1,0
1100.76,0,1
1100.76,1,1
1100.76,1,1
1100.76,1,0
1100.77,1,0
1100.77,0,1
1100.77,2,3
1100.77,3,3
1100.77,1,1
1100.77,0,0
1100.78,1,4
1100.78,5,4
1100.78,2,0
1100.78,0,0
1100.78,0,1
1100.78,1,1
1100.79,1,1
1100.79,3,3
1100.79,2,2
1100.79,1,0
1100.79,0,2
1100.8,1,1
1100.8,1,1
1100.8,1,1
1100.8,2,2
1100.8,2,2
1100.8,2,2
1100.8,2,2
1100.81,1,2
1100.81,2,1
1100.81,1,0
1100.81,0,1
1100.81,1,0
1100.82,0,1
1100.82,2,3
1100.82,3,3
1100.82,2,1
1100.82,1,1
1100.82,1,1
1100.82,1,0
1100.83,1,1
1100.83,1,1
1100.83,1,0
1100.83,1,2
1100.84,2,2
1100.84,1,2
1100.84,2,2
1100.84,2,1
1100.84,1,1
1100.84,1,2
1100.84,2,2
1100.85,1,2
1100.85,2,3
1100.85,2,2
1100.85,1,1
1100.85,0,0
1100.86,1,2
1100.86,1,1
1100.86,0,0
1100.86,0,2
1100.86,3,5
1100.86,5,2
1100.86,0,0
1100.87,0,1
1100.87,1,1
1100.87,1,1
1100.87,1,1
1100.87,1,1
1100.88,2,2
1100.88,2,2
1100.88,1,1
1100.88,1,2
1100.88,2,2
1100.89,2,2
1100.89,2,2
1100.89,2,2
1100.89,2,2
1100.89,1,1
1100.89,0,0
1100.89,0,0
1100.9,1,1
1100.9,1,0
1100.9,0,2
1100.9,2,3
1100.91,3,4
1100.91,3,2
1100.91,1,1
1100.91,1,0
1100.91,0,0
1100.91,2,2
1100.91,1,1
1100.92,1,1
1100.92,1,2
1100.92,2,2
1100.92,2,2
1100.92,2,1
1100.93,1,1
1100.93,1,1
1100.93,0,2
1100.93,2,1
1100.93,1,1
1100.93,1,2
1100.93,2,2
1100.94,1,1
1100.94,1,1
1100.94,1,2
1100.94,3,3
1100.94,2,1
1100.95,0,0
1100.95,0,0
1100.95,1,2
1100.95,2,2
1100.96,2,1
1100.96,0,0
1100.96,1,4
1100.96,5,3
1100.96,1,0
1100.96,0,0
1100.96,1,1
1100.96,2,2
1100.97,3,1
1100.97,1,0
1100.97,1,1
1100.97,1,1
1100.98,1,1
1100.98,1,1
1100.98,2,3
1100.98,3,3
1100.98,3,3
1100.98,1,0
1100.98,0,0
1100.99,0,1
1100.99,2,3
1100.99,3,2
1100.99,1,1
1100.99,1,0
1101,1,1
1101,1,1
1101,2,2
1101,2,2
1101,2,2
1101,2,2
1101,2,2
1101.01,1,1
1101.01,1,0
1101.01,1,1
1101.01,1,2
1101.01,2,2
1101.02,2,2
1101.02,2,2
1101.02,2,2
1101.02,2,2
1101.02,1,1
1101.02,0,0
1101.02,0,1
1101.03,2,2
1101.03,2,2
1101.03,2,2
1101.03,1,2
1101.04,2,2
1101.04,2,2
1101.04,2,1
1101.04,1,1
1101.04,1,1
1101.05,2,2
1101.05,3,1
1101.05,1,0
1101.05,2,2
1101.05,1,1
1101.05,1,0
1101.05,0,0
1101.06,2,5
1101.06,6,5
1101.06,2,0
1101.06,0,0
1101.06,0,0
1101.07,0,0
1101.07,1,2
1101.07,2,2
1101.07,2,2
1101.07,1,1
1101.07,1,1
1101.07,1,1
1101.08,1,1
1101.08,2,3
1101.08,4,2
1101.08,1,1
1101.08,0,0
1101.09,2,1
1101.09,1,1
1101.09,1,1
1101.09,1,1
1101.09,0,1
1101.09,1,2
1101.09,2,1
1101.1,1,1
1101.1,1,2
1101.1,2,2
1101.1,2,3
1101.11,2,1
1101.11,0,1
1101.11,1,1
1101.11,1,1
1101.11,1,2
1101.11,2,2
1101.11,2,2
1101.12,2,2
1101.12,2,2
1101.12,1,1
1101.12,1,1
1101.12,1,2
1101.13,2,2
1101.13,2,2
1101.13,1,3
1101.13,3,2
1101.13,1,0
1101.14,0,0
1101.14,1,2
1101.14,2,3
1101.14,2,2
1101.14,2,1
1101.14,1,1
1101.14,1,0
1101.15,1,1
1101.15,1,1
1101.15,1,2
1101.15,2,2
1101.15,2,2
1101.16,2,2
1101.16,2,1
1101.16,0,1
1101.16,1,3
1101.16,5,5
1101.16,3,0
1101.16,0,0
1101.17,0,1
1101.17,1,1
1101.17,1,1
1101.17,1,0
1101.18,0,0
1101.18,0,0
1101.18,2,2
1101.18,3,3
1101.18,2,2
1101.18,1,2
1101.18,2,2
1101.19,2,2
1101.19,2,2
1101.19,1,2
1101.19,2,1
1101.19,1,1
1101.2,0,0
1101.2,0,2
1101.2,2,1
1101.2,1,1
1101.2,1,0
1101.2,-1,0
1101.2,1,3
1101.21,5,5
1101.21,5,2
1101.21,1,0
1101.21,0,0
1101.21,1,1
1101.22,1,1
1101.22,2,2
1101.22,2,2
1101.22,2,2
1101.23,2,1
1101.23,1,1
1101.23,0,2
1101.23,1,1
1101.23,1,2
1101.23,2,1
1101.23,0,0
1101.24,1,1
1101.24,1,2
1101.24,3,2
1101.24,1,1
1101.24,1,1
1101.25,1,0
1101.25,1,2
1101.25,2,2
1101.25,1,1
1101.25,1,0
1101.25,1,2
1101.25,2,1
1101.26,1,1
1101.26,2,3
1101.26,3,1
1101.26,1,1
1101.26,1,1
1101.27,1,1
1101.27,1,2
1101.27,3,3
1101.27,2,1
1101.27,0,1
1101.27,1,2
1101.27,2,1
1101.28,0,0
1101.28,0,0
1101.28,0,2
1101.28,2,3
1101.28,2,1
1101.29,1,1
1101.29,1,3
1101.29,4,4
1101.29,3,1
1101.3,0,0
1101.3,0,1
1101.3,2,2
1101.3,2,2
1101.3,2,1
1101.3,1,1
1101.3,1,1
1101.31,2,2
1101.31,2,1
1101.31,1,1
1101.31,2,2
1101.31,3,2
1101.32,2,2
1101.32,1,2
1101.32,1,1
1101.32,0,0
1101.32,1,1
1101.32,1,2
1101.32,2,3
1101.33,2,1
1101.33,1,0
1101.33,1,1
1101.33,1,2
1101.33,2,2
1101.34,2,2
1101.34,2,2
1101.34,2,1
1101.34,0,0
1101.34,1,1
1101.34,1,1
1101.34,1,1
1101.35,1,2
1101.35,3,3
1101.35,4,4
1101.35,3,2
1101.35,1,0
1101.36,0,0
1101.36,1,3
1101.36,4,2
1101.36,1,0
1101.36,0,0
1101.36,0,0
1101.36,1,1
