Program Time [s],data 0,data 1
1038.19,1,1
1038.2,1,2
1038.2,2,2
1038.2,2,2
1038.2,3,5
1038.2,4,1
1038.2,0,-1
1038.2,0,0
1038.21,1,1
1038.21,2,2
1038.21,2,2
1038.21,2,2
1038.22,2,2
1038.22,1,1
1038.22,2,2
1038.22,2,1
1038.22,1,1
1038.22,2,2
1038.22,2,2
1038.23,2,2
1038.23,2,2
1038.23,2,1
1038.23,1,1
1038.23,2,2
1038.24,1,1
1038.24,1,2
1038.24,2,3
1038.24,2,2
1038.24,2,1
1038.24,1,1
1038.24,1,1
1038.25,1,0
1038.25,0,1
1038.25,1,1
1038.25,2,2
1038.25,2,2
1038.26,2,2
1038.26,2,2
1038.26,2,2
1038.26,1,1
1038.26,1,1
1038.27,1,0
1038.27,0,0
1038.27,1,1
1038.27,2,2
1038.27,2,2
1038.27,2,2
1038.27,2,3
1038.28,2,2
1038.28,2,1
1038.28,1,0
1038.28,0,0
1038.29,0,1
1038.29,1,2
1038.29,2,1
1038.29,1,0
1038.29,0,1
1038.29,2,3
1038.29,4,6
1038.3,6,3
1038.3,0,0
1038.3,0,1
1038.3,1,1
1038.3,0,0
1038.31,0,1
1038.31,1,2
1038.31,2,2
1038.31,2,2
1038.31,2,2
1038.31,2,2
1038.31,1,1
1038.32,1,2
1038.32,2,2
1038.32,1,1
1038.32,1,2
1038.32,2,2
1038.33,2,2
1038.33,2,3
1038.33,2,1
1038.33,0,0
1038.33,1,2
1038.33,2,2
1038.33,1,1
1038.34,2,2
1038.34,3,2
1038.34,2,2
1038.34,2,1
1038.34,1,1
1038.35,1,0
1038.35,0,0
1038.35,1,2
1038.35,2,2
1038.36,2,2
1038.36,2,3
1038.36,1,1
1038.36,1,1
1038.36,1,1
1038.36,1,2
1038.36,2,2
1038.37,1,1
1038.37,1,1
1038.37,2,2
1038.37,2,2
1038.37,2,3
1038.38,2,3
1038.38,2,0
1038.38,-1,0
1038.38,1,2
1038.38,3,3
1038.38,3,2
1038.38,1,0
1038.39,0,0
1038.39,1,2
1038.39,3,2
1038.39,1,1
1038.39,1,1
1038.4,1,1
1038.4,1,0
1038.4,1,1
1038.4,1,1
1038.4,1,2
1038.4,2,2
1038.4,2,2
1038.41,2,2
1038.41,2,2
1038.41,2,1
1038.41,1,1
1038.42,1,1
1038.42,1,1
1038.42,0,1
1038.42,1,1
1038.42,2,2
1038.42,2,2
1038.42,2,2
1038.43,2,2
1038.43,1,1
1038.43,1,1
1038.43,1,1
1038.43,1,2
1038.44,2,2
1038.44,2,2
1038.44,2,2
1038.44,2,2
1038.44,1,2
1038.45,2,2
1038.45,1,1
1038.45,1,0
1038.45,1,1
1038.45,2,3
1038.45,2,1
1038.45,1,1
1038.46,2,2
1038.46,2,2
1038.46,2,2
1038.46,1,0
1038.46,0,1
1038.47,1,1
1038.47,1,1
1038.47,1,1
1038.47,1,1
1038.47,1,1
1038.47,2,2
1038.47,3,3
1038.48,2,2
1038.48,2,1
1038.48,0,2
1038.48,1,1
1038.49,0,0
1038.49,0,0
1038.49,2,6
1038.49,6,3
1038.49,1,0
1038.49,-1,-1
1038.49,0,2
1038.5,3,2
1038.5,1,1
1038.5,1,2
1038.5,2,2
1038.5,2,0
1038.51,0,0
1038.51,1,1
1038.51,2,2
1038.51,2,2
1038.51,2,2
1038.51,2,2
1038.51,2,2
1038.52,2,1
1038.52,1,1
1038.52,1,1
1038.52,2,2
1038.52,2,2
1038.53,1,1
1038.53,1,2
1038.53,2,2
1038.53,2,2
1038.53,2,2
1038.54,2,1
1038.54,1,1
1038.54,1,1
1038.54,0,1
1038.54,1,1
1038.54,2,2
1038.54,2,2
1038.55,1,2
1038.55,2,2
1038.55,2,2
1038.55,2,1
1038.56,1,2
1038.56,2,1
1038.56,0,0
1038.56,0,0
1038.56,0,1
1038.56,1,1
1038.56,2,2
1038.57,2,2
1038.57,3,2
1038.57,2,4
1038.57,4,3
1038.57,2,0
1038.58,0,0
1038.58,1,1
1038.58,2,2
1038.58,3,2
1038.58,1,0
1038.58,0,0
1038.58,1,1
1038.59,1,2
1038.59,2,2
1038.59,2,2
1038.59,2,1
1038.59,1,2
1038.6,3,2
1038.6,2,2
1038.6,1,0
1038.6,0,0
1038.61,1,1
1038.61,1,1
1038.61,1,1
1038.61,1,2
1038.61,2,2
1038.61,2,3
1038.61,2,2
1038.62,1,1
1038.62,1,1
1038.62,1,2
1038.62,2,1
1038.62,1,1
1038.63,2,2
1038.63,2,1
1038.63,1,1
1038.63,2,2
1038.63,2,2
1038.63,2,2
1038.63,2,1
1038.64,1,0
1038.64,1,2
1038.64,2,2
1038.64,2,1
1038.64,1,2
1038.65,2,1
1038.65,1,1
1038.65,1,2
1038.65,2,2
1038.65,2,2
1038.65,2,1
1038.65,1,1
1038.66,2,3
1038.66,2,1
1038.66,1,0
1038.66,0,0
1038.66,1,1
1038.67,3,6
1038.67,6,3
1038.67,1,0
1038.67,-1,0
1038.67,0,0
1038.67,1,1
1038.67,2,1
1038.68,1,0
1038.68,1,1
1038.68,1,0
1038.68,1,1
1038.69,1,2
1038.69,3,3
1038.69,3,2
1038.69,1,1
1038.69,1,1
1038.7,2,2
1038.7,2,2
1038.7,2,2
1038.7,2,1
1038.7,1,0
1038.7,0,0
1038.7,1,2
1038.71,2,2
1038.71,2,1
1038.71,1,1
1038.71,1,2
1038.71,2,2
1038.72,3,2
1038.72,2,1
1038.72,1,1
1038.72,0,1
1038.72,1,2
1038.72,2,2
1038.72,1,1
1038.73,2,2
1038.73,3,2
1038.73,2,3
1038.73,3,1
1038.73,0,0
1038.74,0,0
1038.74,0,1
1038.74,2,2
1038.74,2,2
1038.74,2,3
1038.74,2,2
1038.74,1,0
1038.75,0,0
1038.75,0,1
1038.75,2,2
1038.75,2,2
1038.76,2,2
1038.76,2,2
1038.76,1,1
1038.76,0,0
1038.76,0,2
1038.76,3,6
1038.76,5,3
1038.77,0,0
1038.77,0,1
1038.77,1,1
1038.77,0,0
1038.77,1,1
1038.78,1,1
1038.78,2,3
1038.78,4,2
1038.78,1,0
1038.78,0,1
1038.79,1,1
1038.79,2,2
1038.79,2,2
1038.79,3,2
1038.79,2,1
1038.79,1,0
1038.79,0,1
1038.8,2,2
1038.8,2,2
1038.8,1,1
1038.8,1,1
1038.81,2,2
1038.81,2,2
1038.81,2,2
1038.81,2,2
1038.81,2,1
1038.81,1,1
1038.81,1,1
1038.81,2,1
1038.82,1,2
1038.82,3,4
1038.82,3,2
1038.82,1,0
1038.83,0,0
1038.83,1,1
1038.83,0,1
1038.83,1,1
1038.83,1,2
1038.83,2,1
1038.83,2,2
1038.84,2,2
1038.84,2,2
1038.84,2,2
1038.84,2,1
1038.84,1,1
1038.85,1,1
1038.85,1,1
1038.85,1,0
1038.85,0,1
1038.85,1,1
1038.85,1,1
1038.85,1,0
1038.86,1,2
1038.86,4,6
1038.86,5,3
1038.86,1,0
1038.86,0,0
1038.87,0,0
1038.87,1,2
1038.87,3,2
1038.87,0,0
1038.88,0,1
1038.88,2,3
1038.88,2,2
1038.88,2,2
1038.88,2,2
1038.88,1,1
1038.88,1,1
1038.89,1,1
1038.89,1,1
1038.89,0,1
1038.89,1,1
1038.89,1,1
1038.9,2,2
1038.9,3,3
1038.9,2,2
1038.9,1,1
1038.9,0,0
1038.9,1,1
1038.9,2,2
1038.91,2,1
1038.91,1,1
1038.91,1,2
1038.91,2,2
1038.91,2,2
1038.92,2,2
1038.92,2,2
1038.92,1,1
1038.92,1,1
1038.92,1,1
1038.92,1,1
1038.92,0,1
1038.93,1,1
1038.93,1,1
1038.93,1,2
1038.93,2,2
1038.93,2,1
1038.94,1,2
1038.94,2,3
1038.94,2,3
1038.94,3,2
1038.95,1,0
1038.95,0,0
1038.95,0,1
1038.95,1,1
1038.95,2,2
1038.95,1,0
1038.95,0,1
1038.96,3,4
1038.96,5,4
1038.96,3,2
1038.96,0,0
1038.96,-1,0
1038.97,1,3
1038.97,4,2
1038.97,2,1
1038.97,0,0
1038.97,0,0
1038.97,1,1
1038.97,2,2
1038.98,2,2
1038.98,2,2
1038.98,1,1
1038.98,1,1
1038.98,1,2
1038.99,2,2
1038.99,2,2
1038.99,2,2
1038.99,2,1
1038.99,1,1
1038.99,1,1
1038.99,1,0
1039,1,1
1039,1,2
1039,2,2
1039,2,2
1039,2,2
1039.01,1,1
1039.01,1,1
1039.01,1,1
1039.01,1,1
1039.01,1,0
1039.01,1,1
1039.01,1,1
1039.02,1,1
1039.02,1,2
1039.02,2,1
1039.02,1,1
1039.03,1,1
1039.03,1,2
1039.03,2,2
1039.03,3,3
1039.03,1,1
1039.04,1,1
1039.04,1,1
1039.04,1,1
1039.04,1,2
1039.04,2,1
1039.04,0,0
1039.04,0,1
1039.05,1,2
1039.05,2,2
1039.05,2,1
1039.05,1,1
1039.05,1,2
1039.06,2,1
1039.06,1,1
1039.06,1,3
1039.06,5,4
1039.06,3,2
1039.06,1,0
1039.06,-1,0
1039.07,0,0
1039.07,1,1
1039.07,1,1
1039.07,1,1
1039.08,1,2
1039.08,3,3
1039.08,2,1
1039.08,1,1
1039.08,2,1
1039.08,1,1
1039.08,1,2
1039.09,2,2
1039.09,2,2
1039.09,2,2
1039.09,2,2
1039.09,1,1
1039.1,1,1
1039.1,1,1
1039.1,1,1
1039.1,1,1
1039.1,1,1
1039.1,1,1
1039.1,1,1
1039.11,1,2
1039.11,2,2
1039.11,1,1
1039.11,0,0
1039.11,0,0
1039.12,0,1
1039.12,2,2
1039.12,2,2
1039.12,2,2
1039.12,2,2
1039.13,2,2
1039.13,2,1
1039.13,1,1
1039.13,1,1
1039.13,1,2
1039.13,2,2
1039.13,2,1
1039.14,2,2
1039.14,2,2
1039.14,2,2
1039.14,1,1
1039.15,1,1
1039.15,1,0
1039.15,1,1
1039.15,1,1
1039.15,2,2
1039.15,2,2
1039.15,2,2
1039.16,2,2
1039.16,1,1
1039.16,1,1
1039.16,0,0
1039.16,0,0
1039.17,2,4
1039.17,5,3
1039.17,2,1
1039.17,0,0
1039.17,0,1
1039.17,1,1
1039.17,1,1
1039.18,1,1
1039.18,0,1
1039.18,1,1
1039.18,1,1
1039.18,0,1
1039.19,1,2
1039.19,4,4
1039.19,2,1
1039.19,1,0
1039.19,0,1
1039.19,1,1
1039.19,1,1
1039.2,1,1
1039.2,1,2
1039.2,3,3
1039.2,2,1
1039.2,2,2
1039.21,1,1
1039.21,1,1
1039.21,1,1
1039.21,2,2
1039.22,2,2
1039.22,2,2
1039.22,2,2
1039.22,1,1
1039.22,1,1
1039.22,1,2
1039.22,3,3
1039.23,3,2
1039.23,2,1
1039.23,1,0
1039.23,0,0
1039.23,0,1
1039.24,2,2
1039.24,2,2
1039.24,1,1
1039.24,1,2
1039.24,2,2
1039.24,2,2
1039.24,3,2
1039.25,1,1
1039.25,1,1
1039.25,2,2
1039.25,1,1
1039.25,0,1
1039.26,1,1
1039.26,1,0
1039.26,1,1
1039.26,2,2
1039.26,2,2
1039.26,2,2
1039.26,2,1
1039.27,1,1
1039.27,2,1
1039.27,1,1
1039.27,0,1
1039.28,3,6
1039.28,5,2
1039.28,0,0
1039.28,0,0
1039.28,1,2
1039.29,2,2
1039.29,2,2
1039.29,1,1
1039.29,1,1
1039.29,0,0
1039.29,1,1
1039.29,1,1
1039.3,1,1
1039.3,1,1
1039.3,1,1
1039.3,2,3
1039.3,4,3
1039.31,3,2
1039.31,1,1
1039.31,1,0
1039.31,0,0
1039.31,0,0
1039.31,0,1
1039.31,1,2
1039.32,2,3
1039.32,3,2
1039.32,2,2
1039.32,1,1
1039.32,2,2
1039.33,1,1
1039.33,1,2
1039.33,2,2
1039.33,2,2
1039.33,1,0
1039.33,0,1
1039.33,2,2
1039.34,2,2
1039.34,2,2
1039.34,2,2
1039.34,1,0
1039.35,0,1
1039.35,2,3
1039.35,3,3
1039.35,2,2
1039.35,0,0
1039.35,0,1
1039.35,2,4
1039.36,3,1
1039.36,0,0
1039.36,0,0
1039.36,0,1
1039.36,2,4
1039.37,4,2
1039.37,0,0
1039.37,1,1
1039.37,2,2
1039.37,2,2
1039.38,2,1
1039.38,2,2
1039.38,2,2
1039.38,1,1
1039.38,1,1
1039.38,2,2
1039.38,2,2
1039.39,1,1
1039.39,1,2
1039.39,2,2
1039.39,2,2
1039.39,2,2
1039.4,2,1
1039.4,1,1
1039.4,1,1
1039.4,2,2
1039.4,2,2
1039.4,1,1
1039.4,1,1
1039.41,1,1
1039.41,2,2
1039.41,2,2
1039.41,2,1
1039.42,1,1
1039.42,2,2
1039.42,2,2
1039.42,3,1
1039.42,0,0
1039.42,1,2
1039.42,2,3
1039.43,2,2
1039.43,1,1
1039.43,1,1
1039.43,1,2
1039.43,2,2
1039.44,2,2
1039.44,2,2
1039.44,1,1
1039.44,1,1
1039.44,1,0
1039.44,1,1
1039.44,1,1
1039.45,2,2
1039.45,2,3
1039.45,2,1
1039.45,1,1
1039.45,1,1
1039.46,1,1
1039.46,1,0
1039.46,1,1
1039.46,1,1
1039.47,2,6
1039.47,6,3
1039.47,1,0
1039.47,0,0
1039.47,0,0
1039.47,0,0
1039.47,1,1
1039.48,1,1
1039.48,2,2
1039.48,3,3
1039.48,2,1
1039.48,1,1
1039.49,2,1
1039.49,0,0
1039.49,1,2
1039.49,2,2
1039.49,2,2
1039.49,2,2
1039.49,1,1
1039.5,1,1
1039.5,2,2
1039.5,2,2
1039.5,2,2
1039.5,2,1
1039.51,1,1
1039.51,1,1
1039.51,2,2
1039.51,2,2
1039.51,2,2
1039.51,3,1
1039.51,1,0
1039.52,1,1
1039.52,2,2
1039.52,2,3
1039.52,3,2
1039.52,1,1
1039.53,0,0
1039.53,0,1
1039.53,2,2
1039.53,2,2
1039.53,2,2
1039.53,2,1
1039.53,1,1
1039.54,1,2
1039.54,2,2
1039.54,2,2
1039.54,2,2
1039.55,2,2
1039.55,1,1
1039.55,1,0
1039.55,0,0
1039.55,0,0
1039.56,2,5
1039.56,6,5
1039.56,3,1
1039.56,0,0
1039.56,0,1
1039.56,1,0
1039.56,0,1
1039.57,1,2
1039.57,2,2
1039.57,2,2
1039.57,2,1
1039.57,1,1
1039.58,1,2
1039.58,2,2
1039.58,2,3
1039.58,2,2
1039.58,2,1
1039.58,1,1
1039.58,1,0
1039.59,0,1
1039.59,2,2
1039.59,2,2
1039.59,2,1
1039.59,1,1
1039.6,1,1
1039.6,1,1
1039.6,1,1
1039.6,2,2
1039.6,2,2
1039.6,1,1
1039.6,1,1
1039.61,2,2
1039.61,2,1
1039.61,1,1
1039.61,2,3
1039.62,3,1
1039.62,1,1
1039.62,2,2
1039.62,2,2
1039.62,2,1
1039.62,0,0
1039.62,0,0
1039.63,1,1
1039.63,2,3
1039.63,4,2
1039.63,1,0
1039.63,0,1
1039.64,1,1
1039.64,1,2
1039.64,2,3
1039.64,2,1
1039.64,1,1
1039.65,1,0
1039.65,0,1
1039.65,1,2
1039.65,4,5
1039.65,5,3
1039.65,1,0
1039.65,0,0
1039.66,1,1
1039.66,1,1
1039.66,1,1
1039.66,1,1
1039.67,1,1
1039.67,0,1
1039.67,0,0
1039.67,0,1
1039.67,2,2
1039.67,2,2
1039.67,2,2
1039.67,2,2
1039.68,2,3
1039.68,2,2
1039.68,1,1
1039.68,1,1
1039.69,1,0
1039.69,0,1
1039.69,2,2
1039.69,2,2
1039.69,1,2
1039.69,2,2
1039.69,2,2
1039.7,1,1
1039.7,1,1
1039.7,1,1
1039.7,2,2
1039.7,2,2
1039.71,2,2
1039.71,3,2
1039.71,1,1
1039.71,0,0
1039.71,1,2
1039.72,2,2
1039.72,2,2
1039.72,1,1
1039.72,1,1
1039.72,1,1
1039.72,1,1
1039.72,0,1
1039.73,1,1
1039.73,2,2
1039.73,2,2
1039.73,2,1
1039.74,1,2
1039.74,2,2
1039.74,2,1
1039.74,1,1
1039.74,1,2
1039.74,3,3
1039.74,1,1
1039.75,0,0
1039.75,0,1
1039.75,3,6
1039.75,6,3
1039.75,0,0
1039.76,0,0
1039.76,0,2
1039.76,2,3
1039.76,2,2
1039.76,0,0
1039.76,0,1
1039.76,1,1
1039.77,1,1
1039.77,1,1
1039.77,1,1
1039.77,1,1
1039.77,1,2
1039.78,3,3
1039.78,3,2
1039.78,1,0
1039.78,0,1
1039.78,1,1
1039.78,1,2
1039.78,2,2
1039.79,2,2
1039.79,2,1
1039.79,1,3
1039.79,3,2
1039.79,1,0
1039.8,0,0
1039.8,1,2
1039.8,2,2
1039.8,1,1
1039.81,1,1
1039.81,2,2
1039.81,2,2
1039.81,2,2
1039.81,1,1
1039.81,1,2
1039.81,2,2
1039.82,2,2
1039.82,2,2
1039.82,2,1
1039.82,1,1
1039.82,1,1
1039.83,0,1
1039.83,0,0
1039.83,0,1
1039.83,2,2
1039.83,3,2
1039.83,2,2
1039.83,2,2
1039.84,2,2
1039.84,2,2
1039.84,2,2
1039.84,1,0
1039.84,0,0
1039.85,1,2
1039.85,2,1
1039.85,0,0
1039.85,2,5
1039.85,4,2
1039.85,1,0
1039.85,1,1
1039.86,1,1
1039.86,1,1
1039.86,1,1
1039.86,1,1
1039.86,0,1
1039.87,1,1
1039.87,1,1
1039.87,1,2
1039.87,1,1
1039.87,2,2
1039.87,2,2
1039.87,2,2
1039.88,2,2
1039.88,2,2
1039.88,2,1
1039.88,1,1
1039.89,1,1
1039.89,0,0
1039.89,1,1
1039.89,1,1
1039.89,1,2
1039.9,2,3
1039.9,3,2
1039.9,2,1
1039.9,1,1
1039.9,0,0
1039.9,1,0
1039.9,0,1
1039.91,2,2
1039.91,4,5
1039.91,4,2
1039.91,0,0
1039.91,0,1
1039.92,1,2
1039.92,2,2
1039.92,2,1
1039.92,1,0
1039.92,0,0
1039.92,1,1
1039.92,2,2
1039.93,1,1
1039.93,2,1
1039.93,0,0
1039.93,0,1
1039.94,4,6
1039.94,7,4
1039.94,1,0
1039.94,1,0
1039.94,0,0
1039.94,0,1
1039.94,2,3
1039.95,4,3
1039.95,1,0
1039.95,0,0
1039.95,1,1
1039.95,1,1
1039.96,1,2
1039.96,2,2
1039.96,1,2
1039.96,2,2
1039.96,2,1
1039.96,1,1
1039.96,2,2
1039.97,2,2
1039.97,2,2
1039.97,2,1
1039.97,1,1
1039.97,1,1
1039.98,1,1
1039.98,1,0
1039.98,1,1
1039.98,1,1
1039.98,1,1
1039.99,1,1
1039.99,2,2
1039.99,2,2
1039.99,2,2
1039.99,2,2
1039.99,1,1
1039.99,2,2
1040,2,2
1040,2,2
1040,1,0
1040,0,0
1040.01,1,1
1040.01,2,2
1040.01,2,1
1040.01,1,1
1040.01,1,2
1040.01,3,4
1040.01,3,1
1040.02,0,0
1040.02,1,2
1040.02,2,2
1040.02,2,1
1040.02,1,2
1040.03,2,2
1040.03,1,1
1040.03,1,1
1040.03,2,1
1040.03,1,1
1040.03,1,2
1040.03,2,3
1040.04,3,2
1040.04,1,0
1040.04,0,0
1040.04,1,2
1040.04,2,2
1040.05,2,2
1040.05,2,2
1040.05,2,1
1040.05,1,2
1040.06,2,2
1040.06,2,2
1040.06,1,1
1040.06,1,1
1040.06,1,1
1040.06,1,0
1040.06,1,2
1040.06,2,2
1040.07,2,1
1040.07,1,1
1040.07,1,1
1040.07,2,2
1040.08,2,2
1040.08,2,2
1040.08,2,2
1040.08,1,2
1040.08,2,2
1040.08,2,2
1040.08,1,0
1040.09,0,0
1040.09,0,0
1040.09,2,2
1040.09,3,3
1040.09,4,4
1040.1,3,2
1040.1,2,1
1040.1,1,0
1040.1,0,0
1040.1,0,1
1040.1,2,4
1040.1,3,2
1040.11,1,1
1040.11,1,0
1040.11,0,0
1040.11,1,1
1040.11,2,2
1040.12,2,2
1040.12,2,2
1040.12,2,3
1040.12,2,1
1040.12,1,1
1040.12,1,1
1040.12,1,1
1040.13,0,1
1040.13,1,2
1040.13,2,2
1040.13,2,1
1040.14,2,3
1040.14,2,1
1040.14,1,1
1040.14,1,1
1040.14,1,1
1040.15,0,0
1040.15,0,0
1040.15,1,2
1040.15,2,3
1040.15,2,2
1040.15,2,2
1040.15,2,2
1040.16,2,1
1040.16,1,1
1040.16,1,1
1040.16,1,2
1040.16,1,1
1040.17,0,0
1040.17,0,0
1040.17,1,1
1040.17,2,5
1040.17,4,2
1040.17,0,0
1040.17,1,1
1040.18,2,2
1040.18,2,2
1040.18,2,1
1040.18,0,0
1040.18,0,0
1040.19,0,1
1040.19,2,3
1040.19,3,3
1040.19,1,1
1040.19,1,2
1040.19,2,2
1040.19,2,2
1040.2,2,2
1040.2,2,1
1040.2,1,1
1040.2,2,2
1040.21,2,2
1040.21,1,1
1040.21,1,0
1040.21,0,1
1040.21,2,4
1040.21,5,3
1040.21,1,0
1040.22,0,0
1040.22,1,1
1040.22,1,1
1040.22,1,1
1040.22,1,2
1040.23,2,1
1040.23,0,0
1040.23,0,1
1040.23,1,1
1040.23,0,1
1040.24,2,3
1040.24,3,3
1040.24,2,1
1040.24,1,0
1040.24,0,1
1040.24,2,2
1040.24,2,1
1040.25,1,0
1040.25,0,1
1040.25,3,6
1040.25,5,2
1040.25,0,0
1040.26,0,1
1040.26,1,1
1040.26,1,1
1040.26,1,1
1040.26,1,0
1040.26,1,1
1040.26,1,1
1040.27,1,2
1040.27,2,2
1040.27,2,2
1040.27,2,2
1040.28,2,2
1040.28,1,1
1040.28,1,1
1040.28,1,1
1040.28,2,2
1040.28,2,2
1040.28,2,1
1040.29,1,1
1040.29,1,1
1040.29,1,1
1040.29,2,2
1040.29,1,2
1040.3,3,3
1040.3,1,1
1040.3,1,1
1040.3,2,1
1040.3,0,0
1040.3,0,0
1040.3,2,3
1040.31,4,2
1040.31,1,0
1040.31,0,0
1040.31,0,1
1040.31,3,4
1040.32,2,2
1040.32,2,1
1040.32,1,0
1040.32,0,1
1040.33,1,1
1040.33,1,0
1040.33,1,1
1040.33,0,0
1040.33,1,3
1040.33,5,5
1040.33,4,0
1040.34,0,-1
1040.34,0,1
1040.34,2,2
1040.34,2,3
1040.34,2,2
1040.35,2,1
1040.35,1,1
1040.35,1,0
1040.35,0,1
1040.35,1,1
1040.35,2,2
1040.35,2,1
1040.36,1,1
1040.36,1,1
1040.36,1,1
1040.36,2,2
1040.36,3,2
1040.37,2,2
1040.37,1,1
1040.37,1,1
1040.37,1,1
1040.37,2,3
1040.37,3,2
1040.37,2,2
1040.38,2,1
1040.38,1,1
1040.38,1,0
1040.38,0,0
1040.38,1,1
1040.39,1,2
1040.39,2,2
1040.39,2,2
1040.39,1,0
1040.39,0,1
1040.39,3,3
1040.39,2,1
1040.4,1,1
1040.4,1,1
1040.4,1,1
1040.4,1,2
1040.41,3,3
1040.41,2,0
1040.41,0,0
1040.41,1,2
1040.41,4,4
1040.42,3,2
1040.42,0,0
1040.42,0,1
1040.42,1,1
1040.42,0,1
1040.42,1,1
1040.42,2,2
1040.43,2,2
1040.43,2,2
1040.43,1,2
1040.43,2,2
1040.43,2,2
1040.44,1,1
1040.44,2,2
1040.44,2,3
1040.44,2,1
1040.44,0,0
1040.44,1,1
1040.44,1,2
1040.45,3,3
1040.45,2,1
1040.45,1,0
1040.45,0,0
1040.45,1,1
1040.46,2,2
1040.46,3,3
1040.46,2,2
1040.46,2,2
1040.46,2,2
1040.46,1,0
1040.46,0,0
1040.47,1,2
1040.47,1,1
1040.47,1,2
1040.47,2,3
1040.48,2,1
1040.48,1,1
1040.48,2,2
1040.48,2,2
1040.48,2,2
1040.49,2,2
1040.49,2,0
1040.49,0,0
1040.49,1,3
1040.49,4,3
1040.49,2,0
1040.49,0,0
1040.5,1,1
1040.5,2,1
1040.5,1,1
1040.5,1,2
1040.5,3,3
1040.51,2,2
1040.51,1,1
1040.51,1,0
1040.51,0,0
1040.51,0,2
1040.51,2,3
1040.51,3,4
1040.52,3,2
1040.52,1,1
1040.52,1,1
1040.52,1,1
1040.52,1,0
1040.53,0,1
1040.53,1,2
1040.53,2,2
1040.53,1,2
1040.53,2,2
1040.53,2,2
1040.53,1,1
1040.54,1,1
1040.54,1,2
1040.54,2,2
1040.54,2,2
1040.55,2,2
1040.55,2,2
1040.55,1,1
1040.55,1,1
1040.55,1,1
1040.55,2,2
1040.55,2,2
1040.56,2,2
1040.56,1,2
1040.56,2,2
1040.56,2,2
1040.56,0,0
1040.57,0,2
1040.57,3,3
1040.57,2,0
1040.57,0,0
1040.57,1,1
1040.58,2,2
1040.58,2,2
1040.58,1,1
1040.58,1,2
1040.58,3,3
1040.58,2,2
1040.58,1,0
1040.59,0,1
1040.59,1,2
1040.59,2,2
1040.59,1,1
1040.6,1,2
1040.6,2,2
1040.6,2,2
1040.6,2,2
1040.6,2,1
1040.6,1,1
1040.6,1,1
1040.61,1,2
1040.61,3,3
1040.61,2,2
1040.61,1,0
1040.61,0,0
1040.62,0,0
1040.62,0,2
1040.62,3,2
1040.62,2,2
1040.62,2,2
1040.62,2,2
1040.62,2,2
1040.63,2,1
1040.63,1,1
1040.63,1,0
1040.63,1,1
1040.63,2,3
1040.64,3,2
1040.64,1,1
1040.64,0,0
1040.64,0,1
1040.64,1,1
1040.64,2,2
1040.64,3,2
1040.65,2,1
1040.65,0,0
1040.65,2,5
1040.65,6,3
1040.65,0,0
1040.66,0,0
1040.66,0,0
1040.66,1,1
1040.66,0,1
1040.67,1,2
1040.67,2,2
1040.67,3,2
1040.67,1,0
1040.67,0,0
1040.67,1,2
1040.67,3,2
1040.68,2,1
1040.68,2,3
1040.68,3,3
1040.68,2,2
1040.68,1,0
1040.69,0,0
1040.69,0,1
1040.69,1,2
1040.69,2,2
1040.69,2,2
1040.69,1,1
1040.69,1,2
1040.7,2,2
1040.7,2,2
1040.7,2,2
1040.7,2,2
1040.7,1,1
1040.71,1,1
1040.71,1,1
1040.71,1,1
1040.71,1,1
1040.71,1,1
1040.71,2,2
1040.71,2,2
1040.72,2,2
1040.72,1,0
1040.72,0,0
1040.72,0,1
1040.72,1,2
1040.73,2,2
1040.73,2,2
1040.73,1,1
1040.73,1,1
1040.73,1,2
1040.73,4,6
1040.73,5,2
1040.74,0,-1
1040.74,0,0
1040.74,0,0
1040.74,1,2
1040.75,2,2
1040.75,2,2
1040.75,2,3
1040.75,1,1
1040.75,0,1
1040.76,0,0
1040.76,0,2
1040.76,2,3
1040.76,2,3
1040.76,4,3
1040.76,3,2
1040.76,1,0
1040.77,0,0
1040.77,0,1
1040.77,2,2
1040.77,2,2
1040.77,2,1
1040.78,1,1
1040.78,1,1
1040.78,1,1
1040.78,1,1
1040.78,1,1
1040.78,0,1
1040.78,2,3
1040.79,2,1
1040.79,1,0
1040.79,0,0
1040.79,0,1
1040.8,2,2
1040.8,2,2
1040.8,1,0
1040.8,0,1
1040.8,3,5
1040.8,6,3
1040.8,1,0
1040.8,0,0
1040.81,1,1
1040.81,2,3
1040.81,2,2
1040.81,2,1
1040.82,1,1
1040.82,1,1
1040.82,0,0
1040.82,0,0
1040.82,0,1
1040.82,2,3
1040.82,3,3
1040.83,2,2
1040.83,2,2
1040.83,2,2
1040.83,2,1
1040.83,1,1
1040.84,1,1
1040.84,1,1
1040.84,1,1
1040.84,1,1
1040.84,1,1
1040.85,0,1
1040.85,2,2
1040.85,1,1
1040.85,1,1
1040.85,1,2
1040.85,3,2
1040.85,2,2
1040.86,2,2
1040.86,2,1
1040.86,1,1
1040.86,1,1
1040.87,1,1
1040.87,1,1
1040.87,2,2
1040.87,1,0
1040.87,0,0
1040.87,1,4
1040.87,5,3
1040.88,1,1
1040.88,1,1
1040.88,2,2
1040.88,2,1
1040.88,1,0
1040.89,0,0
1040.89,1,1
1040.89,1,1
1040.89,1,1
1040.89,1,2
1040.89,2,2
1040.89,2,2
1040.9,2,2
1040.9,2,2
1040.9,3,2
1040.9,1,1
1040.9,1,0
1040.91,0,1
1040.91,1,1
1040.91,1,0
1040.91,0,2
1040.91,2,2
1040.92,2,2
1040.92,2,3
1040.92,3,1
1040.92,1,1
1040.92,1,1
1040.92,1,1
1040.92,0,0
1040.93,1,2
1040.93,1,0
1040.93,0,1
1040.93,2,3
1040.94,4,2
1040.94,1,0
1040.94,1,2
1040.94,2,2
1040.94,1,1
1040.94,0,0
1040.94,1,3
1040.95,3,1
1040.95,0,0
1040.95,0,1
1040.95,1,0
1040.95,0,1
1040.96,2,3
1040.96,3,2
1040.96,1,1
1040.96,1,1
1040.96,2,2
1040.96,3,2
1040.96,1,1
1040.97,3,2
1040.97,1,0
1040.97,1,2
1040.97,2,2
1040.97,1,1
1040.98,1,1
1040.98,2,2
1040.98,1,1
1040.98,1,1
1040.98,1,1
1040.98,0,1
1040.98,2,2
1040.99,4,5
1040.99,3,0
1040.99,0,-1
1040.99,0,0
1041,2,7
1041,8,6
1041,3,1
1041,0,0
1041,-2,-2
1041.01,-1,0
1041.01,2,2
1041.01,2,2
1041.01,1,1
1041.01,1,2
1041.01,2,3
1041.01,2,1
1041.02,1,1
1041.02,3,4
1041.02,2,2
1041.02,2,1
1041.02,0,0
1041.03,0,1
1041.03,2,3
1041.03,3,3
1041.03,2,1
1041.03,2,2
1041.03,1,1
1041.03,0,0
1041.04,0,1
1041.04,1,2
1041.04,2,2
1041.04,3,2
1041.04,1,1
1041.05,2,2
1041.05,3,3
1041.05,4,1
1041.05,0,-1
1041.05,0,1
1041.05,1,1
1041.05,0,1
1041.06,3,4
1041.06,6,4
1041.06,2,0
1041.06,0,0
1041.07,0,1
1041.07,1,1
1041.07,1,1
1041.07,2,3
1041.07,3,3
1041.07,3,1
1041.07,0,0
1041.08,1,2
1041.08,2,2
1041.08,2,1
1041.08,0,0
1041.08,1,1
1041.09,2,2
1041.09,2,2
1041.09,1,0
1041.09,0,0
1041.09,3,3
1041.1,5,5
1041.1,4,2
1041.1,0,-1
1041.1,-2,0
1041.1,1,3
1041.1,4,4
1041.1,3,1
1041.11,0,0
1041.11,0,1
1041.11,2,3
1041.11,2,0
1041.11,0,0
1041.12,0,1
1041.12,2,2
1041.12,2,3
1041.12,3,1
1041.12,0,1
1041.12,3,3
1041.12,4,2
1041.13,1,0
1041.13,1,3
1041.13,4,4
1041.13,2,0
1041.14,0,0
1041.14,0,0
1041.14,0,2
1041.14,4,3
1041.14,2,2
1041.14,1,0
1041.14,-1,-1
1041.15,0,0
1041.15,2,3
1041.15,6,6
1041.15,4,2
1041.15,0,0
1041.16,0,1
1041.16,2,3
1041.16,2,3
1041.16,3,1
1041.16,0,-1
1041.16,0,0
1041.16,1,4
1041.17,5,4
1041.17,4,3
1041.17,0,0
1041.17,0,0
1041.17,1,1
1041.18,1,1
1041.18,2,3
1041.18,4,1
1041.18,0,-1
1041.19,0,3
1041.19,3,2
1041.19,1,0
1041.19,0,0
1041.19,1,1
1041.19,2,2
1041.19,2,2
1041.19,2,2
1041.2,2,3
1041.2,1,1
1041.2,1,1
1041.2,0,1
1041.21,1,1
1041.21,1,2
1041.21,2,2
1041.21,2,2
1041.21,2,2
1041.21,3,1
1041.21,1,1
1041.22,1,1
1041.22,0,1
1041.22,1,2
1041.22,3,2
1041.22,2,1
1041.23,1,0
1041.23,0,0
1041.23,0,0
1041.23,2,5
1041.23,5,5
1041.23,2,1
1041.23,0,0
1041.24,0,0
1041.24,0,0
1041.24,1,1
1041.24,1,1
1041.24,1,2
1041.25,3,3
1041.25,3,1
1041.25,0,0
1041.25,1,0
1041.26,0,0
1041.26,1,2
1041.26,4,5
1041.26,4,4
1041.26,2,1
1041.26,1,1
1041.26,1,1
1041.27,0,0
1041.27,0,1
1041.27,1,2
1041.27,2,1
1041.27,1,0
1041.28,1,1
1041.28,3,3
1041.28,3,2
1041.28,1,1
1041.28,1,1
1041.28,1,0
1041.28,0,0
1041.29,1,2
1041.29,3,3
1041.29,3,1
1041.29,0,1
1041.29,2,2
1041.3,2,2
1041.3,2,2
1041.3,1,1
1041.3,1,0
1041.3,0,1
1041.3,4,4
1041.3,3,4
1041.31,2,0
1041.31,0,0
1041.31,-1,0
1041.31,0,1
1041.31,2,3
1041.32,3,3
1041.32,2,1
1041.32,0,0
1041.32,0,0
1041.32,1,2
1041.32,2,4
1041.32,4,3
1041.33,2,0
1041.33,0,0
1041.33,1,1
1041.33,2,3
1041.34,2,2
1041.34,1,1
1041.34,0,0
1041.34,1,1
1041.34,1,2
1041.35,2,2
1041.35,1,1
1041.35,1,1
1041.35,2,2
1041.35,2,2
1041.35,2,1
1041.35,1,2
1041.36,2,2
1041.36,3,1
1041.36,0,0
1041.36,1,2
1041.36,3,3
1041.37,3,1
1041.37,0,0
1041.37,0,1
1041.37,3,3
1041.37,3,1
1041.37,0,0
1041.37,-1,0
1041.38,2,4
1041.38,4,5
1041.38,5,3
1041.38,0,0
1041.38,0,0
1041.39,1,1
1041.39,1,1
1041.39,0,0
1041.39,0,0
1041.39,1,2
1041.39,2,2
1041.39,2,1
1041.4,1,1
1041.4,2,3
1041.4,4,3
1041.4,3,3
1041.41,2,2
1041.41,2,3
1041.41,2,2
1041.41,1,0
1041.41,0,0
1041.41,0,0
1041.41,0,0
1041.42,-1,0
1041.42,0,1
1041.42,2,3
1041.42,4,3
1041.42,2,2
1041.43,2,2
1041.43,2,2
1041.43,2,2
1041.43,2,1
1041.43,1,2
1041.44,3,2
1041.44,1,0
1041.44,0,0
1041.44,0,0
1041.44,1,1
1041.44,2,3
1041.44,2,2
1041.45,0,0
1041.45,0,0
1041.45,2,5
1041.45,8,7
1041.45,3,0
1041.46,-1,0
1041.46,0,0
1041.46,1,2
1041.46,2,2
1041.46,1,1
1041.46,2,2
1041.46,2,2
1041.47,0,0
1041.47,0,1
1041.47,1,1
1041.47,1,1
1041.48,1,2
1041.48,2,2
1041.48,2,2
1041.48,1,2
1041.48,2,3
1041.48,2,1
1041.48,1,1
1041.49,0,0
1041.49,1,1
1041.49,1,2
1041.49,3,3
1041.49,2,1
1041.5,1,0
1041.5,0,2
1041.5,2,3
1041.5,3,2
1041.5,1,0
1041.5,-1,0
1041.5,0,1
1041.51,1,1
1041.51,2,2
1041.51,3,3
1041.51,3,1
1041.51,1,1
1041.52,1,2
1041.52,2,2
1041.52,2,2
1041.52,2,2
1041.53,2,2
1041.53,1,1
1041.53,0,0
1041.53,0,1
1041.53,0,0
1041.53,0,2
1041.53,2,2
1041.54,3,5
1041.54,4,2
1041.54,0,0
1041.54,0,0
1041.54,1,1
1041.55,1,1
1041.55,2,3
1041.55,3,3
1041.55,1,1
1041.55,0,1
1041.55,1,1
1041.55,0,0
1041.56,2,3
1041.56,3,3
1041.56,1,1
1041.56,1,1
1041.56,2,1
1041.57,0,0
1041.57,0,0
1041.57,2,3
1041.57,4,3
1041.57,1,0
1041.57,0,0
1041.57,1,1
1041.58,2,2
1041.58,2,2
1041.58,2,2
1041.58,2,1
1041.58,2,3
1041.59,3,3
1041.59,1,0
1041.59,0,0
1041.59,0,1
1041.59,1,2
1041.59,2,2
1041.59,3,3
1041.6,1,0
1041.6,0,0
1041.6,2,3
1041.6,3,2
1041.61,0,0
1041.61,0,1
1041.61,4,7
1041.61,7,4
1041.61,1,-1
1041.62,-1,0
1041.62,0,1
1041.62,1,2
1041.62,3,2
1041.62,0,0
1041.62,0,0
1041.62,0,0
1041.63,0,1
1041.63,1,2
1041.63,2,2
1041.63,2,1
1041.63,1,2
1041.64,2,4
1041.64,6,7
1041.64,5,3
1041.64,0,0
1041.64,0,0
1041.64,0,0
1041.64,-1,0
1041.65,0,0
1041.65,1,1
1041.65,1,1
1041.65,2,2
1041.65,2,2
1041.66,2,2
1041.66,1,1
1041.66,1,1
1041.66,2,2
1041.66,3,3
1041.66,2,1
1041.66,0,1
1041.67,2,1
1041.67,0,0
1041.67,2,2
1041.67,2,1
1041.68,1,1
1041.68,1,1
1041.68,2,3
1041.68,4,2
1041.68,1,0
1041.69,0,3
1041.69,5,3
1041.69,1,0
1041.69,-1,0
1041.69,0,2
1041.69,2,0
1041.69,0,0
1041.7,1,2
1041.7,2,3
1041.7,2,2
1041.7,2,2
1041.7,3,2
1041.71,2,1
1041.71,0,0
1041.71,0,0
1041.71,0,1
1041.71,2,2
1041.71,2,3
1041.71,2,3
1041.72,4,4
1041.72,4,3
1041.72,3,2
1041.72,0,0
1041.72,0,0
1041.73,0,1
1041.73,2,1
1041.73,0,0
1041.73,0,2
1041.73,1,2
1041.73,3,2
1041.73,2,1
1041.74,0,0
1041.74,0,1
1041.74,1,2
1041.74,1,1
1041.75,1,2
1041.75,3,5
1041.75,4,4
1041.75,1,0
1041.75,0,-1
1041.75,0,0
1041.75,2,4
1041.76,4,2
1041.76,1,1
1041.76,1,0
1041.76,0,0
1041.76,0,1
1041.77,3,3
1041.77,3,3
1041.77,3,1
1041.77,1,0
1041.77,0,0
1041.78,0,1
1041.78,2,2
1041.78,3,4
1041.78,6,5
1041.78,3,1
1041.78,0,-1
1041.78,-1,0
1041.79,0,2
1041.79,5,4
1041.79,2,1
1041.79,0,0
1041.8,0,1
1041.8,1,2
1041.8,3,4
1041.8,2,2
1041.8,2,2
1041.8,1,0
1041.8,0,0
1041.8,1,2
1041.81,2,2
1041.81,1,0
1041.81,1,2
1041.81,2,2
1041.82,2,2
1041.82,2,2
1041.82,2,1
1041.82,0,0
1041.82,0,2
1041.82,3,5
1041.82,4,2
1041.83,0,-1
1041.83,0,1
1041.83,3,4
1041.83,3,2
1041.83,0,0
1041.84,0,1
1041.84,2,2
1041.84,2,1
1041.84,0,0
1041.84,0,0
1041.84,0,0
1041.84,1,3
1041.85,5,5
1041.85,4,4
1041.85,2,0
1041.85,0,0
1041.85,0,2
1041.86,2,1
1041.86,1,2
1041.86,3,4
1041.86,1,2
1041.87,3,3
1041.87,1,1
1041.87,1,2
1041.87,2,2
1041.87,0,0
1041.87,0,0
1041.87,-1,-1
1041.88,-3,-3
1041.88,-1,1
1041.88,3,5
1041.88,7,12
1041.88,8,-1
1041.89,-6,-6
1041.89,-2,5
1041.89,13,17
1041.89,14,10
1041.89,4,0
1041.89,-2,-1
1041.89,-2,-4
1041.9,-8,-13
1041.9,-8,0
1041.9,9,16
1041.9,17,15
1041.91,0,-18
1041.91,-25,-22
1041.91,-14,-8
1041.91,-2,2
1041.91,13,28
1041.91,37,40
1041.91,31,14
1041.92,-2,-16
1041.92,-21,-21
1041.92,-8,13
1041.92,24,20
1041.92,7,-6
1041.93,-15,-17
1041.93,-18,-19
1041.93,-10,2
1041.93,3,-1
1041.94,0,5
1041.94,12,19
1041.94,20,17
1041.94,8,0
1041.94,-7,-18
1041.94,-19,-11
1041.94,-2,0
1041.95,4,12
1041.95,15,14
1041.95,9,0
1041.95,-5,-2
1041.95,0,9
1041.96,19,21
1041.96,15,2
1041.96,-10,-18
1041.96,-16,-8
1041.96,0,6
1041.96,8,9
1041.96,7,2
1041.97,-5,-7
1041.97,-6,-4
1041.97,-6,-17
1041.97,-17,0
1041.98,18,23
1041.98,20,24
1041.98,21,9
1041.98,-1,-5
1041.98,-2,1
1041.98,3,4
1041.98,4,3
1041.99,-2,-12
1041.99,-18,-16
1041.99,-9,-1
1041.99,4,3
1041.99,-2,0
1042,5,10
1042,17,23
1042,25,21
1042,12,2
1042,-3,-5
1042,-8,-9
1042.01,-10,-10
1042.01,-7,-4
1042.01,-1,2
1042.01,5,4
1042.01,5,9
1042.02,10,5
1042.02,0,-2
1042.02,-5,-10
1042.02,-10,-9
1042.02,-4,3
1042.03,7,11
1042.03,12,11
1042.03,7,3
1042.03,2,2
1042.03,4,7
1042.03,9,6
1042.03,3,3
1042.04,1,0
1042.04,-1,-2
1042.04,-1,-2
1042.04,-1,1
1042.05,2,0
1042.05,-2,-1
1042.05,0,2
1042.05,4,3
1042.05,1,1
1042.05,2,2
1042.05,1,1
1042.06,2,2
1042.06,1,1
1042.06,1,0
1042.06,0,0
1042.06,1,2
1042.07,4,5
1042.07,3,1
1042.07,0,0
1042.07,1,2
1042.07,3,3
1042.07,1,1
1042.07,1,2
1042.08,2,1
1042.08,0,0
1042.08,0,-1
1042.08,-1,0
1042.08,0,3
1042.09,6,5
1042.09,3,2
1042.09,4,8
1042.09,8,4
1042.09,1,0
1042.09,0,-1
1042.09,-1,-2
1042.1,0,1
1042.1,3,3
1042.1,2,0
1042.1,-2,-1
1042.11,-1,-1
1042.11,0,0
1042.11,2,5
1042.11,8,9
1042.11,8,7
1042.12,8,5
1042.12,3,0
1042.12,-3,-7
1042.12,-8,-4
1042.12,0,2
1042.12,3,4
1042.12,4,1
1042.13,2,3
1042.13,1,-3
1042.13,-5,-3
1042.13,1,4
1042.13,6,3
1042.14,3,4
1042.14,4,4
1042.14,4,3
1042.14,4,2
1042.14,0,-1
1042.14,-1,-1
1042.14,0,1
1042.15,3,4
1042.15,5,5
1042.15,7,9
1042.15,8,5
1042.15,0,-4
1042.16,-8,-7
1042.16,-3,0
1042.16,1,2
1042.16,4,4
1042.16,3,2
1042.16,1,0
1042.16,-1,-1
1042.17,0,0
1042.17,1,2
1042.17,2,2
1042.17,1,1
1042.18,3,5
1042.18,6,5
1042.18,1,0
1042.18,0,0
1042.18,1,4
1042.18,6,4
1042.18,0,0
1042.19,0,-1
1042.19,-1,-1
1042.19,-1,-1
1042.19,0,0
1042.19,2,2
1042.2,3,4
1042.2,6,6
1042.2,6,5
1042.2,4,4
1042.2,1,0
1042.21,-1,-1
1042.21,-1,0
1042.21,0,0
1042.21,0,0
1042.21,0,1
1042.21,2,4
1042.21,5,5
1042.22,4,3
1042.22,3,2
1042.22,1,0
1042.22,0,0
1042.22,1,2
1042.23,3,3
1042.23,3,2
1042.23,0,0
1042.23,0,0
1042.23,0,2
1042.23,3,2
1042.23,0,2
1042.24,7,7
1042.24,4,0
1042.24,-3,-4
1042.24,-3,-2
1042.25,0,0
1042.25,1,3
1042.25,5,5
1042.25,5,3
1042.25,2,1
1042.25,1,2
1042.25,3,3
1042.26,1,0
1042.26,0,0
1042.26,1,2
1042.26,3,3
1042.26,3,4
1042.27,3,2
1042.27,2,2
1042.27,2,1
1042.27,0,-1
1042.27,0,0
1042.27,3,5
1042.27,3,1
1042.28,0,0
1042.28,0,1
1042.28,2,3
1042.28,2,3
1042.28,2,2
1042.29,2,1
1042.29,1,0
1042.29,0,0
1042.29,0,0
1042.3,0,1
1042.3,2,2
1042.3,1,1
1042.3,3,3
1042.3,2,2
1042.3,2,4
1042.3,7,6
1042.31,2,0
1042.31,0,0
1042.31,1,3
1042.31,4,2
1042.31,0,0
1042.32,-1,0
1042.32,0,1
1042.32,2,2
1042.32,1,0
1042.32,-1,-1
1042.32,0,2
1042.32,5,6
1042.33,5,4
1042.33,2,1
1042.33,0,1
1042.33,1,1
1042.33,1,2
1042.34,3,2
1042.34,2,1
1042.34,1,1
1042.34,2,2
1042.34,2,1
1042.34,1,1
1042.34,1,2
1042.35,2,3
1042.35,3,2
1042.35,1,1
1042.35,0,1
1042.35,1,0
1042.36,1,2
1042.36,2,3
1042.36,2,0
1042.36,-1,0
1042.36,1,2
1042.36,3,2
1042.36,1,1
1042.37,1,1
1042.37,1,1
1042.37,2,2
1042.37,2,1
1042.38,0,0
1042.38,0,2
1042.38,3,4
1042.38,3,4
1042.38,4,3
1042.39,1,1
1042.39,1,1
1042.39,1,0
1042.39,1,2
1042.39,2,2
1042.39,1,0
1042.39,-1,0
1042.4,0,1
1042.4,2,2
1042.4,3,3
1042.4,3,2
1042.4,1,0
1042.41,1,1
1042.41,1,1
1042.41,1,0
1042.41,0,1
1042.41,1,2
1042.41,2,5
1042.41,7,5
1042.42,2,0
1042.42,0,0
1042.42,2,2
1042.42,1,0
1042.42,0,0
1042.43,0,1
1042.43,1,1
1042.43,0,0
1042.43,1,1
1042.43,2,2
1042.43,2,2
1042.43,3,4
1042.44,4,5
1042.44,4,3
1042.44,1,0
1042.44,0,0
1042.45,0,0
1042.45,0,0
1042.45,0,0
1042.45,1,1
1042.45,1,2
1042.46,5,7
1042.46,6,2
1042.46,0,-2
1042.46,-1,0
1042.46,1,1
1042.46,0,0
1042.46,1,2
1042.47,2,3
1042.47,2,1
1042.47,0,0
1042.47,2,3
1042.47,2,3
1042.48,5,4
1042.48,3,1
1042.48,1,1
1042.48,1,0
1042.48,-1,0
1042.48,0,1
1042.48,2,2
1042.49,3,4
1042.49,2,1
1042.49,0,0
1042.49,0,1
1042.5,1,1
1042.5,1,1
1042.5,2,2
1042.5,2,2
1042.5,2,2
1042.5,2,3
1042.5,4,3
1042.5,1,0
1042.51,0,0
1042.51,0,0
1042.51,1,2
1042.51,2,2
1042.52,2,2
1042.52,2,2
1042.52,2,0
1042.52,0,0
1042.52,1,2
1042.52,3,2
1042.52,1,0
1042.53,0,0
1042.53,0,1
1042.53,2,3
1042.53,4,3
1042.53,1,1
1042.54,2,3
1042.54,3,3
1042.54,2,1
1042.54,0,0
1042.54,0,0
1042.55,-1,0
1042.55,1,3
1042.55,3,4
1042.55,4,4
1042.55,2,1
1042.55,0,1
1042.55,1,0
1042.56,0,1
1042.56,1,1
1042.56,0,0
1042.56,2,2
1042.57,2,2
1042.57,2,1
1042.57,0,0
1042.57,2,2
1042.57,3,3
1042.57,4,3
1042.57,2,0
1042.58,0,0
1042.58,1,2
1042.58,2,2
1042.58,1,1
1042.58,1,1
1042.59,1,1
1042.59,2,2
1042.59,1,1
1042.59,1,2
1042.59,1,0
1042.59,1,1
1042.59,2,4
1042.6,5,3
1042.6,2,0
1042.6,0,0
1042.6,1,2
1042.6,3,2
1042.61,1,0
1042.61,1,1
1042.61,1,0
1042.61,0,0
1042.61,0,0
1042.61,1,2
1042.61,3,4
1042.62,3,2
1042.62,1,1
1042.62,2,3
1042.62,4,3
1042.62,3,2
1042.63,1,0
1042.63,0,-1
1042.63,0,0
1042.63,2,2
1042.64,1,1
1042.64,1,2
1042.64,2,2
1042.64,2,3
1042.64,3,1
1042.64,1,1
1042.64,1,2
1042.65,2,2
1042.65,1,0
1042.65,0,0
1042.65,0,1
1042.65,2,2
1042.66,2,1
1042.66,1,0
1042.66,1,1
1042.66,2,2
1042.66,1,1
1042.66,1,1
1042.66,2,4
1042.67,4,3
1042.67,1,0
1042.67,0,0
1042.67,1,2
1042.67,2,2
1042.68,2,1
1042.68,1,1
1042.68,1,0
1042.68,0,0
1042.68,0,1
1042.68,2,4
1042.68,5,4
1042.69,2,0
1042.69,0,0
1042.69,0,-1
1042.69,-1,0
1042.69,1,2
1042.7,3,4
1042.7,4,4
1042.7,4,3
1042.7,2,1
1042.7,0,0
1042.7,1,1
1042.7,1,1
1042.71,1,1
1042.71,1,0
1042.71,0,0
1042.71,0,1
1042.72,2,4
1042.72,4,5
1042.72,3,2
1042.72,1,0
1042.72,0,0
1042.73,2,2
1042.73,1,0
1042.73,0,1
1042.73,2,4
1042.73,4,4
1042.73,2,1
1042.73,0,0
1042.74,0,0
1042.74,1,1
1042.74,2,3
1042.74,3,2
1042.74,1,1
1042.75,2,1
1042.75,0,0
1042.75,0,1
1042.75,2,2
1042.75,2,2
1042.75,2,2
1042.75,2,1
1042.76,0,0
1042.76,0,2
1042.76,5,5
1042.76,5,3
1042.76,1,0
1042.77,0,0
1042.77,0,0
1042.77,1,2
1042.77,2,1
1042.77,1,0
1042.77,0,2
1042.77,3,4
1042.78,3,3
1042.78,1,0
1042.78,0,0
1042.78,1,1
1042.79,1,1
1042.79,2,2
1042.79,1,2
1042.79,3,2
1042.79,1,0
1042.8,0,1
1042.8,3,3
1042.8,3,3
1042.8,3,2
1042.8,1,0
1042.8,0,1
1042.8,3,5
1042.81,4,1
1042.81,-1,-1
1042.81,-1,0
1042.81,1,1
1042.81,2,2
1042.82,1,2
1042.82,2,2
1042.82,2,2
1042.82,1,1
1042.82,1,1
1042.82,2,2
1042.82,2,2
1042.83,1,1
1042.83,2,3
1042.83,3,2
1042.83,1,0
1042.84,0,0
1042.84,0,1
1042.84,2,2
1042.84,2,2
1042.84,2,2
1042.84,2,2
1042.84,1,1
1042.84,2,3
1042.85,2,1
1042.85,0,0
1042.85,1,2
1042.85,2,2
1042.86,2,2
1042.86,1,1
1042.86,0,0
1042.86,1,1
1042.86,1,2
1042.86,2,2
1042.86,1,0
1042.87,0,0
1042.87,0,0
1042.87,1,3
1042.87,5,4
1042.87,2,0
1042.88,0,0
1042.88,0,2
1042.88,3,5
1042.88,3,1
1042.88,0,0
1042.89,0,2
1042.89,1,0
1042.89,0,0
1042.89,1,1
1042.89,2,4
1042.89,4,3
1042.89,1,0
1042.9,-1,0
1042.9,-1,0
1042.9,2,4
1042.9,5,4
1042.91,3,1
1042.91,1,1
1042.91,1,1
1042.91,0,0
1042.91,0,1
1042.91,2,2
1042.91,2,3
1042.92,3,2
1042.92,1,1
1042.92,1,1
1042.92,1,1
1042.92,0,0
1042.93,1,2
1042.93,3,2
1042.93,2,2
1042.93,1,1
1042.93,1,1
1042.93,1,0
1042.93,0,1
1042.94,1,2
1042.94,2,2
1042.94,1,1
1042.94,2,2
1042.94,3,2
1042.95,1,2
1042.95,2,1
1042.95,1,0
1042.95,0,1
1042.95,3,5
1042.95,6,4
1042.95,0,0
1042.96,0,0
1042.96,0,1
1042.96,2,3
1042.96,2,2
1042.96,2,1
1042.97,0,0
1042.97,1,1
1042.97,3,4
1042.97,6,4
1042.98,1,0
1042.98,0,0
1042.98,1,2
1042.98,3,2
1042.98,0,0
1042.98,1,2
1042.98,2,1
1042.99,0,0
1042.99,0,1
1042.99,1,2
1042.99,2,2
1042.99,2,1
1043,0,0
1043,1,2
1043,2,2
1043,2,2
1043,2,3
1043,2,2
1043,1,0
1043.01,1,1
1043.01,1,0
1043.01,0,2
1043.01,2,2
1043.01,2,2
1043.02,1,1
1043.02,1,2
1043.02,2,1
1043.02,1,1
1043.02,0,0
1043.02,0,2
1043.02,2,2
1043.03,1,1
1043.03,0,0
1043.03,1,2
1043.03,4,5
1043.03,4,2
1043.04,1,0
1043.04,0,1
1043.04,1,0
1043.04,1,1
1043.04,1,1
1043.04,0,1
1043.04,2,2
1043.05,2,2
1043.05,1,1
1043.05,1,0
1043.05,1,1
1043.06,2,2
1043.06,2,1
1043.06,1,2
1043.06,1,1
1043.06,1,1
1043.07,2,3
1043.07,4,2
1043.07,1,0
1043.07,0,1
1043.07,1,0
1043.07,1,0
1043.07,0,1
1043.08,1,1
1043.08,3,4
1043.08,4,2
1043.08,1,1
1043.08,1,0
1043.09,0,0
1043.09,0,1
1043.09,1,2
1043.09,2,2
1043.09,3,3
1043.09,1,0
1043.09,1,0
1043.1,0,0
1043.1,1,4
1043.1,6,4
1043.1,2,1
1043.1,1,1
1043.11,0,-1
1043.11,-1,0
1043.11,1,3
1043.11,5,8
1043.11,6,3
1043.11,0,-1
1043.11,-1,0
1043.12,0,0
1043.12,0,2
1043.12,2,2
1043.12,2,1
1043.13,1,1
1043.13,2,2
1043.13,2,2
1043.13,3,2
1043.13,1,0
1043.14,1,1
1043.14,2,2
1043.14,2,1
1043.14,1,1
1043.14,1,2
1043.14,3,3
1043.14,2,1
1043.15,1,1
1043.15,0,0
1043.15,0,0
1043.15,0,2
1043.15,2,3
1043.16,3,3
1043.16,2,1
1043.16,1,2
1043.16,3,2
1043.16,1,1
1043.16,0,0
1043.16,0,0
1043.17,1,2
1043.17,2,1
1043.17,1,1
1043.17,1,1
1043.18,1,1
1043.18,1,2
1043.18,2,2
1043.18,2,2
1043.18,2,1
1043.18,1,1
1043.18,1,1
1043.19,1,2
1043.19,2,3
1043.19,3,2
1043.19,2,2
1043.19,1,0
1043.2,0,0
1043.2,0,1
1043.2,1,1
1043.2,1,2
1043.2,3,4
1043.2,4,2
1043.2,0,0
1043.21,1,1
1043.21,1,1
1043.21,0,0
1043.21,0,1
1043.21,1,1
1043.22,2,2
1043.22,3,2
1043.22,1,0
1043.22,0,1
1043.22,1,2
1043.23,3,2
1043.23,2,2
1043.23,2,2
1043.23,2,2
1043.23,1,1
1043.23,1,2
1043.23,2,2
1043.24,2,2
1043.24,1,0
1043.24,0,2
1043.24,5,5
1043.25,4,2
1043.25,0,0
1043.25,0,0
1043.25,0,0
1043.25,0,2
1043.25,2,2
1043.25,2,2
1043.26,2,1
1043.26,1,0
1043.26,0,0
1043.26,0,1
1043.26,2,4
1043.27,3,3
1043.27,2,2
1043.27,2,2
1043.27,3,2
1043.27,1,0
1043.27,0,0
1043.27,1,2
1043.28,3,4
1043.28,2,2
1043.28,1,1
1043.28,0,0
1043.28,1,1
1043.29,2,1
1043.29,1,1
1043.29,1,1
1043.29,2,2
1043.29,1,0
1043.29,0,0
1043.29,1,1
1043.3,2,2
1043.3,2,2
1043.3,2,2
1043.3,2,2
1043.3,2,2
1043.31,2,1
1043.31,1,1
1043.31,1,1
1043.31,0,1
1043.32,1,1
1043.32,2,2
1043.32,2,3
1043.32,3,1
1043.32,1,1
1043.32,2,2
1043.32,2,0
1043.33,-1,0
1043.33,0,1
1043.33,2,3
1043.33,3,3
1043.33,3,3
1043.34,2,1
1043.34,1,1
1043.34,1,1
1043.34,1,1
1043.34,0,0
1043.34,1,2
1043.34,2,2
1043.35,2,2
1043.35,2,1
1043.35,1,2
1043.35,2,2
1043.35,2,2
1043.36,2,2
1043.36,1,1
1043.36,1,1
1043.36,1,1
1043.36,1,0
1043.36,0,0
1043.36,0,0
1043.37,2,4
1043.37,5,3
1043.37,2,1
1043.37,0,0
1043.38,0,1
1043.38,1,1
1043.38,1,1
1043.38,2,2
1043.38,2,2
1043.38,1,1
1043.38,1,1
1043.39,0,-1
1043.39,0,0
1043.39,2,3
1043.39,3,3
1043.39,2,2
1043.4,2,2
1043.4,2,2
1043.4,1,1
1043.4,1,2
1043.4,2,2
1043.41,1,1
1043.41,1,1
1043.41,2,2
1043.41,2,2
1043.41,2,2
1043.41,2,2
1043.41,1,1
1043.42,1,2
1043.42,2,2
1043.42,1,1
1043.42,1,1
1043.42,2,3
1043.43,2,2
1043.43,1,2
1043.43,2,2
1043.43,3,4
1043.43,2,1
1043.43,0,0
1043.43,0,-1
1043.44,0,1
1043.44,2,3
1043.44,2,1
1043.44,1,0
1043.45,1,3
1043.45,3,2
1043.45,1,1
1043.45,2,5
1043.45,5,2
1043.45,0,0
1043.45,0,0
1043.46,0,0
1043.46,1,2
1043.46,2,2
1043.46,2,2
1043.46,2,2
1043.47,1,1
1043.47,1,1
1043.47,1,1
1043.47,1,1
1043.47,1,1
1043.47,1,1
1043.47,1,0
1043.48,1,1
1043.48,1,1
1043.48,0,1
1043.48,1,1
1043.48,2,2
1043.49,3,3
1043.49,3,2
1043.49,3,2
1043.49,2,0
1043.49,-1,0
1043.5,0,1
1043.5,2,2
1043.5,2,2
1043.5,1,2
1043.5,2,1
1043.5,0,1
1043.5,1,2
1043.51,2,2
1043.51,2,2
1043.51,2,1
1043.51,1,1
1043.52,2,2
1043.52,2,2
1043.52,1,1
1043.52,2,2
1043.52,3,2
1043.52,1,0
1043.52,0,2
1043.53,1,1
1043.53,1,1
1043.53,1,1
1043.53,1,1
1043.53,0,1
1043.54,1,2
1043.54,2,2
1043.54,1,1
1043.54,1,2
1043.54,2,2
1043.54,2,2
1043.54,2,2
1043.55,2,2
1043.55,1,1
1043.55,0,0
1043.55,0,0
1043.55,2,3
1043.56,4,3
1043.56,3,2
1043.56,0,0
1043.56,0,0
1043.57,1,2
1043.57,3,3
1043.57,2,2
1043.57,2,1
1043.57,1,1
1043.57,2,2
1043.57,2,2
1043.57,2,2
1043.58,1,1
1043.58,2,2
1043.58,2,2
1043.58,2,2
1043.59,1,1
1043.59,1,1
1043.59,1,0
1043.59,1,1
1043.59,1,2
1043.59,2,2
1043.59,2,2
1043.6,2,2
1043.6,2,1
1043.6,1,1
1043.6,1,1
1043.6,1,0
1043.61,1,1
1043.61,2,2
1043.61,2,2
1043.61,1,0
1043.61,1,1
1043.61,1,2
1043.61,3,4
1043.62,4,3
1043.62,2,0
1043.62,0,0
1043.62,0,1
1043.62,2,3
1043.63,2,2
1043.63,1,0
1043.63,0,1
1043.63,1,1
1043.63,1,1
1043.63,1,1
1043.63,1,1
1043.64,0,0
1043.64,2,5
1043.64,4,2
1043.64,0,0
1043.65,0,1
1043.65,2,2
1043.65,2,2
1043.65,2,2
1043.65,2,1
1043.66,1,1
1043.66,2,2
1043.66,2,2
1043.66,1,1
1043.66,1,1
1043.66,1,1
1043.66,2,2
1043.67,3,2
1043.67,2,2
1043.67,2,1
1043.67,1,2
1043.67,1,1
1043.68,1,0
1043.68,0,1
1043.68,1,2
1043.68,2,2
1043.68,2,1
1043.68,1,1
1043.68,1,2
1043.69,1,1
1043.69,2,2
1043.69,2,2
1043.69,1,1
1043.69,1,1
1043.7,2,2
1043.7,2,2
1043.7,2,3
1043.7,1,1
1043.7,1,0
1043.7,1,1
1043.7,1,1
1043.71,2,2
1043.71,2,2
1043.71,2,2
1043.71,2,2
1043.72,1,1
1043.72,1,1
1043.72,1,1
1043.72,0,1
1043.72,1,2
1043.72,3,2
1043.72,3,2
1043.73,0,0
1043.73,0,0
1043.73,1,2
1043.73,4,3
1043.73,3,3
1043.74,2,1
1043.74,0,0
1043.74,0,1
1043.74,1,2
1043.74,2,2
1043.75,1,1
1043.75,1,1
1043.75,1,2
1043.75,3,3
1043.75,2,1
1043.75,0,1
1043.75,1,1
1043.76,1,1
1043.76,1,1
1043.76,2,2
1043.76,2,2
1043.77,2,2
1043.77,2,2
1043.77,1,1
1043.77,1,2
1043.77,2,2
1043.77,2,1
1043.77,1,1
1043.77,2,2
1043.78,2,2
1043.78,2,2
1043.78,1,1
1043.78,1,1
1043.79,2,2
1043.79,2,1
1043.79,1,0
1043.79,0,0
1043.79,0,1
1043.79,3,3
1043.79,3,2
1043.8,2,1
1043.8,1,2
1043.8,2,2
1043.8,1,1
1043.8,2,3
1043.81,2,2
1043.81,1,1
1043.81,1,1
1043.81,1,1
1043.81,0,0
1043.81,1,1
1043.81,2,2
1043.82,2,2
1043.82,1,0
1043.82,0,0
1043.82,1,2
1043.82,4,5
1043.83,4,2
1043.83,1,0
1043.83,0,0
1043.83,1,2
1043.84,2,2
1043.84,1,1
1043.84,1,1
1043.84,1,0
1043.84,0,0
1043.84,2,3
1043.84,3,3
1043.85,1,1
1043.85,1,2
1043.85,3,3
1043.85,2,1
1043.85,0,0
1043.86,1,1
1043.86,2,2
1043.86,2,1
1043.86,1,1
1043.86,1,2
1043.86,2,2
1043.86,2,2
1043.87,2,2
1043.87,2,1
1043.87,1,1
1043.87,1,1
1043.87,1,1
1043.88,2,2
1043.88,2,2
1043.88,2,2
1043.88,2,2
1043.88,2,1
1043.88,1,0
1043.88,1,1
1043.89,2,2
1043.89,3,3
1043.89,1,1
1043.89,1,0
1043.89,0,0
1043.9,1,1
1043.9,2,2
1043.9,3,4
1043.9,3,2
1043.91,0,-1
1043.91,-1,0
1043.91,1,3
1043.91,5,6
1043.91,4,3
1043.91,2,0
1043.91,1,1
1043.92,0,0
1043.92,0,0
1043.92,1,2
1043.92,3,2
1043.92,1,1
1043.93,0,1
1043.93,0,1
1043.93,1,1
1043.93,2,1
1043.93,1,1
1043.93,1,2
1043.93,2,2
1043.94,2,2
1043.94,2,3
1043.94,1,1
1043.94,1,1
1043.94,1,0
1043.95,1,1
1043.95,1,2
1043.95,3,3
1043.95,3,1
1043.95,0,0
1043.95,0,2
1043.95,2,1
1043.96,1,2
1043.96,1,1
1043.96,0,1
1043.96,1,1
1043.96,2,2
1043.97,2,2
1043.97,2,2
1043.97,2,1
1043.97,1,2
1043.97,2,2
1043.97,2,2
1043.97,1,1
1043.98,2,2
1043.98,2,2
1043.98,2,1
1043.98,1,1
1043.99,1,1
1043.99,1,2
1043.99,2,3
1043.99,3,1
1043.99,1,1
1044,2,3
1044,3,2
1044,1,0
1044,0,0
1044,2,1
1044,1,1
1044,1,1
1044.01,1,1
1044.01,0,2
1044.01,2,2
1044.01,1,0
1044.01,0,0
1044.02,1,2
1044.02,2,3
1044.02,3,3
1044.02,2,2
1044.02,3,2
1044.02,2,1
1044.02,1,1
1044.03,2,1
1044.03,1,0
1044.03,0,0
1044.03,1,1
1044.04,1,1
1044.04,1,1
1044.04,1,1
1044.04,1,1
1044.04,0,1
1044.04,2,2
1044.04,2,2
1044.05,2,2
1044.05,2,2
1044.05,2,2
1044.05,2,1
1044.05,1,0
1044.06,1,2
1044.06,2,2
1044.06,2,1
1044.06,1,1
1044.06,2,2
1044.06,2,2
1044.06,2,2
1044.07,2,1
1044.07,1,1
1044.07,1,1
1044.07,2,2
1044.07,2,2
1044.08,2,2
1044.08,1,1
1044.08,1,2
1044.08,2,2
1044.08,1,1
1044.09,0,1
1044.09,3,4
1044.09,3,2
1044.09,0,0
1044.09,0,1
1044.09,1,1
1044.09,1,1
1044.1,1,2
1044.1,2,1
1044.1,0,0
1044.1,0,0
1044.11,1,1
1044.11,2,2
1044.11,2,3
1044.11,3,2
1044.11,1,0
1044.11,1,1
1044.11,1,2
1044.12,3,3
1044.12,2,1
1044.12,1,1
1044.12,2,2
1044.12,1,1
1044.13,0,1
1044.13,1,1
1044.13,1,1
1044.13,1,1
1044.13,1,1
1044.13,1,0
1044.13,0,1
1044.14,1,2
1044.14,2,2
1044.14,2,1
1044.14,2,2
1044.14,2,2
1044.15,1,1
1044.15,1,1
1044.15,2,2
1044.15,2,2
1044.15,2,2
1044.15,3,2
1044.15,2,2
1044.16,2,1
1044.16,0,0
1044.16,0,0
1044.16,0,0
1044.16,1,4
1044.17,5,4
1044.17,2,1
1044.17,0,0
1044.17,0,0
1044.18,1,2
1044.18,2,2
1044.18,1,1
1044.18,1,1
1044.18,2,2
1044.18,3,3
1044.18,2,1
1044.19,1,0
1044.19,0,2
1044.19,2,1
1044.19,1,1
1044.19,1,1
1044.2,1,1
1044.2,1,1
1044.2,1,1
1044.2,1,1
1044.2,1,2
1044.2,2,2
1044.2,2,2
1044.21,2,2
1044.21,3,2
1044.21,2,1
1044.21,1,1
1044.21,0,0
1044.22,0,2
1044.22,2,3
1044.22,2,1
1044.22,1,0
1044.22,0,0
1044.22,1,1
1044.22,1,1
1044.23,2,2
1044.23,2,2
1044.23,2,2
1044.23,2,2
1044.24,2,2
1044.24,1,2
1044.24,2,2
1044.24,2,1
1044.24,1,2
1044.24,2,3
1044.24,1,1
1044.24,1,1
1044.25,1,0
1044.25,1,1
1044.25,1,1
1044.25,0,0
1044.26,0,1
1044.26,3,6
1044.26,5,2
1044.26,0,0
1044.26,0,2
1044.27,3,3
1044.27,1,0
1044.27,0,0
1044.27,-1,0
1044.27,0,1
1044.27,2,2
1044.27,2,2
1044.28,3,4
1044.28,4,4
1044.28,3,3
1044.28,2,1
1044.28,0,0
1044.29,1,0
1044.29,0,0
1044.29,1,2
1044.29,2,2
1044.29,1,1
1044.29,2,2
1044.29,2,3
1044.3,2,2
1044.3,1,1
1044.3,1,1
1044.3,1,1
1044.31,0,1
1044.31,1,2
1044.31,2,1
1044.31,1,0
1044.31,0,1
1044.31,1,1
1044.31,1,1
1044.32,1,2
1044.32,2,2
1044.32,2,2
1044.32,2,3
1044.32,2,2
1044.33,2,1
1044.33,1,0
1044.33,0,0
1044.33,1,1
1044.33,1,1
1044.34,1,1
1044.34,2,3
1044.34,3,4
1044.34,2,1
1044.34,1,1
1044.34,1,0
1044.34,0,1
1044.35,1,1
1044.35,1,1
1044.35,0,0
1044.35,2,5
1044.35,5,3
1044.36,2,0
1044.36,0,0
1044.36,1,2
1044.36,2,1
1044.36,1,0
1044.36,0,0
1044.36,0,1
1044.37,2,2
1044.37,1,1
1044.37,1,1
1044.37,1,1
1044.38,2,2
1044.38,3,3
1044.38,2,2
1044.38,1,1
1044.38,1,1
1044.38,2,3
1044.38,2,0
1044.39,0,0
1044.39,1,2
1044.39,3,3
1044.39,4,3
1044.39,3,2
1044.4,1,0
1044.4,0,1
1044.4,1,1
1044.4,0,0
1044.4,1,1
1044.4,2,2
1044.4,2,2
1044.41,2,2
1044.41,2,2
1044.41,1,1
1044.41,1,1
1044.41,0,1
1044.42,2,2
1044.42,1,1
1044.42,2,2
1044.42,2,2
1044.42,2,2
1044.43,2,2
1044.43,1,1
1044.43,1,1
1044.43,2,2
1044.43,2,2
1044.43,2,1
1044.43,1,2
1044.44,3,4
1044.44,5,3
1044.44,1,0
1044.44,-1,0
1044.45,0,0
1044.45,0,1
1044.45,2,2
1044.45,2,2
1044.45,2,2
1044.45,3,2
1044.45,2,1
1044.46,1,1
1044.46,1,1
1044.46,2,2
1044.46,1,1
1044.46,1,2
1044.47,2,2
1044.47,2,3
1044.47,2,1
1044.47,1,2
1044.47,2,1
1044.47,1,2
1044.47,3,2
1044.48,1,0
1044.48,0,1
1044.48,1,2
1044.48,3,2
1044.48,1,1
1044.49,1,0
1044.49,1,2
1044.49,2,2
1044.49,2,2
1044.49,2,1
1044.49,0,0
1044.49,1,2
1044.5,2,2
1044.5,2,2
1044.5,2,1
1044.5,1,1
1044.51,2,1
1044.51,1,1
1044.51,1,0
1044.51,0,0
1044.51,1,2
1044.52,2,2
1044.52,2,1
1044.52,1,1
1044.52,1,1
1044.52,2,2
1044.52,1,1
1044.52,1,2
1044.53,4,5
1044.53,4,1
1044.53,0,0
1044.53,0,0
1044.53,0,0
1044.54,1,1
1044.54,2,3
1044.54,4,2
1044.54,1,0
1044.54,1,1
1044.54,1,1
1044.54,1,1
1044.55,1,0
1044.55,1,1
1044.55,2,2
1044.55,3,2
1044.55,2,1
1044.56,1,1
1044.56,0,0
1044.56,1,1
1044.56,1,1
1044.56,1,1
1044.56,1,2
1044.56,2,3
1044.57,3,2
1044.57,1,1
1044.57,1,1
1044.57,0,1
1044.58,1,1
1044.58,2,2
1044.58,2,2
1044.58,2,2
1044.58,2,1
1044.58,1,1
1044.58,1,1
1044.59,2,2
1044.59,2,2
1044.59,2,2
1044.59,2,1
1044.59,1,1
1044.6,0,1
1044.6,1,1
1044.6,1,1
1044.6,1,1
1044.6,1,1
1044.61,3,4
1044.61,3,1
1044.61,0,0
1044.61,1,1
1044.61,2,2
1044.61,2,1
1044.61,1,1
1044.62,1,2
1044.62,2,1
1044.62,1,1
1044.62,2,5
1044.62,5,3
1044.63,0,0
1044.63,0,0
1044.63,0,0
1044.63,1,1
1044.63,1,1
1044.63,1,2
1044.63,2,2
1044.64,2,2
1044.64,1,0
1044.64,0,1
1044.64,2,2
1044.65,1,2
1044.65,2,2
1044.65,3,3
1044.65,1,1
1044.65,2,2
1044.65,2,2
1044.65,1,1
1044.66,1,0
1044.66,0,0
1044.66,0,0
1044.66,1,2
1044.66,3,3
1044.67,4,2
1044.67,1,0
1044.67,0,1
1044.67,2,2
1044.67,2,3
1044.68,2,1
1044.68,0,1
1044.68,1,1
1044.68,1,1
1044.68,1,2
1044.68,2,2
1044.68,2,2
1044.69,1,1
1044.69,2,2
1044.69,2,2
1044.69,2,2
1044.7,1,0
1044.7,1,1
1044.7,2,2
1044.7,2,2
1044.7,2,2
1044.7,2,1
1044.7,0,0
1044.71,1,1
1044.71,2,2
1044.71,2,2
1044.71,2,3
1044.71,3,3
1044.72,3,1
1044.72,0,0
1044.72,0,0
1044.72,1,1
1044.72,1,1
1044.72,1,1
1044.72,0,1
1044.73,1,1
1044.73,1,1
1044.73,1,1
1044.73,2,3
1044.73,2,2
1044.74,2,2
1044.74,1,1
1044.74,1,2
1044.74,2,2
1044.74,2,2
1044.74,1,2
1044.74,2,2
1044.75,2,1
1044.75,1,1
1044.75,1,2
1044.75,2,3
1044.75,2,2
1044.76,2,2
1044.76,1,1
1044.76,1,1
1044.76,0,0
1044.77,0,0
1044.77,0,1
1044.77,2,3
1044.77,4,3
1044.77,3,3
1044.77,2,2
1044.77,1,1
1044.78,1,2
1044.78,2,2
1044.78,1,1
1044.78,2,2
1044.78,1,2
1044.79,2,2
1044.79,2,2
1044.79,1,1
1044.79,1,1
1044.79,1,1
1044.79,1,1
1044.79,1,1
1044.8,1,1
1044.8,0,1
1044.8,1,0
1044.8,1,5
1044.8,5,4
1044.81,0,0
1044.81,0,0
1044.81,1,2
1044.81,2,2
1044.81,2,2
1044.81,2,3
1044.81,3,1
1044.82,0,0
1044.82,0,0
1044.82,1,1
1044.82,1,1
1044.82,1,1
1044.83,1,1
1044.83,2,3
1044.83,3,2
1044.83,2,2
1044.83,2,2
1044.83,1,1
1044.83,1,1
1044.84,1,0
1044.84,1,1
1044.84,1,1
1044.84,1,1
1044.85,1,1
1044.85,1,3
1044.85,5,4
1044.85,3,1
1044.85,0,1
1044.86,1,0
1044.86,0,0
1044.86,0,1
1044.86,1,2
1044.86,2,2
1044.86,2,2
1044.86,2,2
1044.87,1,1
1044.87,1,2
1044.87,2,2
1044.87,3,2
1044.87,1,0
1044.88,1,2
1044.88,2,2
1044.88,2,1
1044.88,1,1
1044.88,0,0
1044.88,1,1
1044.88,0,1
1044.89,3,6
1044.89,5,2
1044.89,0,0
1044.89,0,0
1044.89,0,1
1044.9,1,1
1044.9,1,1
1044.9,2,2
1044.9,2,2
1044.9,2,2
1044.9,2,2
1044.9,2,2
1044.91,1,0
1044.91,0,2
1044.91,3,3
1044.91,2,2
1044.92,1,1
1044.92,1,1
1044.92,1,1
1044.92,0,1
1044.92,1,0
1044.92,1,1
1044.92,2,2
1044.93,3,4
1044.93,3,1
1044.93,0,0
1044.93,0,1
1044.93,1,2
1044.94,2,2
1044.94,2,2
1044.94,1,0
1044.94,1,1
1044.94,2,2
1044.95,2,2
1044.95,2,3
1044.95,2,2
1044.95,2,2
1044.95,1,1
1044.95,1,1
1044.95,1,1
1044.96,1,0
1044.96,0,0
1044.96,1,2
1044.96,2,3
1044.97,3,1
1044.97,1,1
1044.97,1,1
1044.97,1,0
1044.97,1,1
1044.97,2,2
1044.97,3,1
1044.97,0,0
1044.98,1,2
1044.98,3,5
1044.98,4,3
1044.98,1,0
1044.99,0,0
1044.99,1,2
1044.99,3,2
1044.99,1,1
1044.99,1,0
1044.99,1,1
1044.99,1,1
1045,1,1
1045,1,2
1045,2,2
1045,2,2
1045,2,2
1045.01,1,2
1045.01,2,2
1045.01,2,2
1045.01,1,1
1045.01,0,1
1045.01,1,1
1045.02,1,1
1045.02,1,2
1045.02,3,3
1045.02,2,1
1045.02,1,2
1045.02,2,2
1045.03,2,2
1045.03,1,1
1045.03,1,2
1045.03,2,2
1045.04,2,2
1045.04,1,1
1045.04,1,0
1045.04,1,2
1045.04,3,2
1045.04,1,0
1045.04,0,0
1045.05,0,0
1045.05,2,2
1045.05,3,4
1045.05,4,2
1045.05,0,1
1045.06,2,2
1045.06,2,2
1045.06,1,1
1045.06,1,1
1045.06,2,2
1045.06,2,2
1045.06,2,2
1045.07,2,1
1045.07,1,0
1045.07,1,1
1045.07,2,1
1045.07,1,0
1045.08,1,3
1045.08,5,4
1045.08,4,1
1045.08,0,0
1045.08,-1,0
1045.08,1,2
1045.08,2,1
1045.09,2,5
1045.09,5,2
1045.09,0,0
1045.09,0,1
1045.09,1,2
1045.1,2,2
1045.1,2,2
1045.1,2,2
1045.1,1,1
1045.11,0,1
1045.11,2,2
1045.11,2,2
1045.11,2,2
1045.11,1,1
1045.11,1,1
1045.11,1,1
1045.12,2,2
1045.12,2,1
1045.12,2,2
1045.12,1,2
1045.12,2,2
1045.13,2,2
1045.13,2,2
1045.13,1,1
1045.13,2,2
1045.13,2,2
1045.13,2,1
1045.13,1,1
1045.14,0,0
1045.14,0,1
1045.14,1,2
1045.14,2,2
1045.14,2,2
1045.15,2,1
1045.15,1,1
1045.15,1,2
1045.15,3,3
1045.15,2,1
1045.15,0,0
1045.15,0,1
1045.16,2,2
1045.16,2,1
1045.16,1,0
1045.16,0,1
1045.16,2,3
1045.17,4,5
1045.17,4,3
1045.17,1,1
1045.17,1,0
1045.17,0,0
1045.17,-1,0
1045.17,0,1
1045.18,1,2
1045.18,2,3
1045.18,3,3
1045.18,1,1
1045.19,1,1
1045.19,1,0
1045.19,1,1
1045.19,2,4
1045.19,5,3
1045.2,1,1
1045.2,0,0
1045.2,0,0
1045.2,0,0
1045.2,0,1
1045.2,1,1
1045.2,1,2
1045.21,2,1
1045.21,1,1
1045.21,1,1
1045.21,1,2
1045.21,4,4
1045.22,2,1
1045.22,1,0
1045.22,0,1
1045.22,1,2
1045.22,2,3
1045.22,2,1
1045.22,1,1
1045.23,1,0
1045.23,1,0
1045.23,1,2
1045.23,3,3
1045.24,2,2
1045.24,1,1
1045.24,1,1
1045.24,1,1
1045.24,2,2
1045.25,1,1
1045.25,0,0
1045.25,0,1
1045.25,1,2
1045.25,2,2
1045.25,2,1
1045.25,1,1
1045.26,1,2
1045.26,2,2
1045.26,2,2
1045.26,2,2
1045.26,2,2
1045.26,2,1
1045.26,1,1
1045.27,1,1
1045.27,1,1
1045.27,1,0
1045.27,1,1
1045.27,1,2
1045.28,3,2
1045.28,1,1
1045.28,0,1
1045.28,1,1
1045.28,1,1
1045.29,2,1
1045.29,0,0
1045.29,0,1
1045.29,2,5
1045.29,5,4
1045.29,1,0
1045.29,0,0
1045.3,0,1
1045.3,1,2
1045.3,2,1
1045.3,1,0
1045.31,1,2
1045.31,3,2
1045.31,2,2
1045.31,2,2
1045.31,1,2
1045.31,2,2
1045.31,2,2
1045.32,2,1
1045.32,1,1
1045.32,1,1
1045.32,1,1
1045.32,1,0
1045.33,0,1
1045.33,0,0
1045.33,1,2
1045.33,3,3
1045.33,2,2
1045.33,2,2
1045.33,2,1
1045.34,1,1
1045.34,1,1
1045.34,1,1
1045.34,1,0
1045.34,1,1
1045.35,1,2
1045.35,2,2
1045.35,2,2
1045.35,2,2
1045.35,2,1
1045.35,1,1
1045.35,1,1
1045.36,1,1
1045.36,0,1
1045.36,1,1
1045.36,1,1
1045.36,1,1
1045.37,1,2
1045.37,3,3
1045.37,3,3
1045.37,3,2
1045.38,0,0
1045.38,0,0
1045.38,0,1
1045.38,1,1
1045.38,1,2
1045.38,3,3
1045.38,2,1
1045.39,1,0
1045.39,1,2
1045.39,2,1
1045.39,0,0
1045.39,0,1
1045.4,4,7
1045.4,7,3
1045.4,0,0
1045.4,0,0
1045.4,0,0
1045.4,0,1
1045.4,2,2
1045.41,2,2
1045.41,2,2
1045.41,2,2
1045.41,1,1
1045.41,1,1
1045.42,1,1
1045.42,1,2
1045.42,2,2
1045.42,1,2
1045.42,2,1
1045.42,0,0
1045.42,1,2
1045.43,2,2
1045.43,2,2
1045.43,2,2
1045.43,2,2
1045.43,2,2
1045.44,1,1
1045.44,1,2
1045.44,3,2
1045.44,2,1
1045.45,1,1
1045.45,0,0
1045.45,1,1
1045.45,1,1
1045.45,1,1
1045.45,0,1
1045.45,1,2
1045.46,2,2
1045.46,2,2
1045.46,2,2
1045.46,2,1
1045.46,1,1
1045.47,1,1
1045.47,0,2
1045.47,2,1
1045.47,1,1
1045.47,1,2
1045.47,2,2
1045.47,2,2
1045.48,1,1
1045.48,1,1
1045.48,2,2
1045.48,1,0
1045.48,0,0
1045.49,0,1
1045.49,1,2
1045.49,2,2
1045.49,1,1
1045.49,1,2
1045.49,2,2
1045.49,2,2
1045.5,2,1
1045.5,1,1
1045.5,1,1
1045.5,1,1
1045.51,1,0
1045.51,1,2
1045.51,3,5
1045.51,5,3
1045.51,1,0
1045.51,0,0
1045.51,0,0
1045.52,2,1
1045.52,1,2
1045.52,3,1
1045.52,0,0
1045.52,0,1
1045.53,0,1
1045.53,1,1
1045.53,1,1
1045.53,2,2
1045.53,2,1
1045.54,2,2
1045.54,2,2
1045.54,2,2
1045.54,1,2
1045.54,2,2
1045.54,1,2
1045.54,2,2
1045.55,1,0
1045.55,0,1
1045.55,2,2
1045.55,2,2
1045.55,1,2
1045.56,2,2
1045.56,1,1
1045.56,0,0
1045.56,0,0
1045.56,2,3
1045.56,3,2
1045.56,1,1
1045.57,2,2
1045.57,2,2
1045.57,2,2
1045.57,2,1
1045.58,1,1
1045.58,2,3
1045.58,3,2
1045.58,2,1
1045.58,1,0
1045.58,0,0
1045.58,1,2
1045.59,2,2
1045.59,2,2
1045.59,1,1
1045.59,1,0
1045.59,2,1
1045.6,1,1
1045.6,1,1
1045.6,1,1
1045.6,1,2
1045.6,3,3
1045.6,2,1
1045.6,1,1
1045.61,2,2
1045.61,2,2
1045.61,2,1
1045.61,1,1
1045.61,2,2
1045.62,2,2
1045.62,2,1
1045.62,1,1
1045.62,1,2
1045.63,2,3
1045.63,3,2
1045.63,1,1
1045.63,1,1
1045.63,0,0
1045.63,0,0
1045.63,0,2
1045.63,3,4
1045.64,3,3
1045.64,2,0
1045.64,0,0
1045.64,1,1
1045.65,2,1
1045.65,1,1
1045.65,1,2
1045.65,2,2
1045.65,2,1
1045.65,2,1
1045.65,1,1
1045.66,1,2
1045.66,2,2
1045.66,2,2
1045.66,2,2
1045.66,2,1
1045.67,1,1
1045.67,0,1
1045.67,1,1
1045.67,2,2
1045.67,2,2
1045.67,1,1
1045.67,2,2
1045.68,2,1
1045.68,0,0
1045.68,1,1
1045.68,2,3
1045.68,3,3
1045.69,1,1
1045.69,1,1
1045.69,1,1
1045.69,2,1
1045.69,0,0
1045.69,0,0
1045.69,1,2
1045.7,3,3
1045.7,2,2
1045.7,1,0
1045.7,1,1
1045.71,1,1
1045.71,1,1
1045.71,1,1
1045.71,1,1
1045.71,1,2
1045.72,2,2
1045.72,1,1
1045.72,0,0
1045.72,0,1
1045.72,1,1
1045.72,1,1
1045.72,1,1
1045.73,2,3
1045.73,4,3
1045.73,2,1
1045.73,1,1
1045.73,1,1
1045.74,0,0
1045.74,0,0
1045.74,1,3
1045.74,4,4
1045.74,3,2
1045.74,1,1
1045.74,1,0
1045.75,0,1
1045.75,1,2
1045.75,3,2
1045.75,1,1
1045.75,0,1
1045.76,1,2
1045.76,2,2
1045.76,2,1
1045.76,1,1
1045.76,1,2
1045.76,3,3
1045.76,1,1
1045.77,2,2
1045.77,2,1
1045.77,1,0
1045.77,0,1
1045.78,1,1
1045.78,1,0
1045.78,1,2
1045.78,3,2
1045.78,2,2
1045.79,2,1
1045.79,0,0
1045.79,0,1
1045.79,1,1
1045.79,2,2
1045.79,3,2
1045.79,1,0
1045.8,0,0
1045.8,2,3
1045.8,2,2
1045.8,3,3
1045.8,3,1
1045.81,1,1
1045.81,2,2
1045.81,1,1
1045.81,1,2
1045.81,1,1
1045.81,1,0
1045.81,0,0
1045.82,0,0
1045.82,2,3
1045.82,3,3
1045.82,2,2
1045.82,2,2
1045.83,2,3
1045.83,2,1
1045.83,1,1
1045.83,1,1
1045.83,0,0
1045.83,1,2
1045.83,2,2
1045.84,1,1
1045.84,3,3
1045.84,3,3
1045.84,1,0
1045.85,0,0
1045.85,0,0
1045.85,1,1
1045.85,1,1
1045.85,1,1
1045.85,1,1
1045.85,2,3
1045.86,4,3
1045.86,2,0
1045.86,0,0
1045.86,1,2
1045.86,3,3
1045.87,2,1
1045.87,1,0
1045.87,1,1
1045.87,1,1
1045.87,1,2
1045.88,4,4
1045.88,4,1
1045.88,0,0
1045.88,0,0
1045.88,0,0
1045.88,2,2
1045.88,2,2
1045.89,2,1
1045.89,0,0
1045.89,1,2
1045.89,2,2
1045.9,2,2
1045.9,1,1
1045.9,1,2
1045.9,1,1
1045.9,2,2
1045.9,3,3
1045.9,1,1
1045.9,2,3
1045.91,3,2
1045.91,0,-1
1045.91,0,0
1045.91,0,2
1045.92,2,3
1045.92,2,2
1045.92,3,3
1045.92,3,2
1045.92,2,2
1045.92,1,1
1045.92,1,0
1045.93,0,0
1045.93,0,2
1045.93,2,2
1045.93,2,2
1045.93,2,2
1045.94,2,2
1045.94,1,1
1045.94,0,0
1045.94,0,1
1045.94,4,6
1045.94,6,4
1045.94,0,0
1045.95,0,0
1045.95,0,0
1045.95,2,1
1045.95,1,1
1045.95,1,1
1045.96,1,1
1045.96,1,2
1045.96,3,2
1045.96,2,2
1045.97,2,2
1045.97,1,1
1045.97,1,1
1045.97,1,1
1045.97,0,1
1045.97,1,2
1045.97,3,3
1045.98,3,2
1045.98,0,0
1045.98,0,1
1045.98,1,2
1045.98,4,3
1045.99,2,1
1045.99,0,0
1045.99,1,1
1045.99,2,2
1045.99,2,2
1045.99,3,3
1045.99,3,1
1046,0,0
1046,0,1
1046,2,2
1046,1,1
1046,1,2
1046.01,3,3
1046.01,1,1
1046.01,1,1
1046.01,2,2
1046.01,2,1
1046.01,1,1
1046.01,2,2
1046.02,3,2
1046.02,1,1
1046.02,1,1
1046.02,0,0
1046.02,1,1
1046.03,1,1
1046.03,1,1
1046.03,1,1
1046.03,1,3
1046.03,4,3
1046.03,2,1
1046.03,0,1
1046.04,1,2
1046.04,2,2
1046.04,2,1
1046.04,1,0
1046.05,0,0
1046.05,0,1
1046.05,2,1
1046.05,1,1
1046.05,2,2
1046.06,2,2
1046.06,2,2
1046.06,2,2
1046.06,2,1
1046.06,1,1
1046.06,1,2
1046.06,3,2
1046.07,1,0
1046.07,0,2
1046.07,3,4
1046.07,3,2
1046.07,1,1
1046.08,1,1
1046.08,1,0
1046.08,0,0
1046.08,1,1
1046.08,1,1
1046.08,2,2
1046.08,2,2
1046.09,1,1
1046.09,1,2
1046.09,2,2
1046.09,2,3
1046.09,2,1
1046.1,0,1
1046.1,2,2
1046.1,2,2
1046.1,1,0
1046.1,0,0
1046.1,1,1
1046.1,1,1
1046.11,2,3
1046.11,4,4
1046.11,4,1
1046.11,0,0
1046.12,0,0
1046.12,0,0
1046.12,1,2
1046.12,2,2
1046.12,1,0
1046.12,0,0
1046.12,2,3
1046.13,5,4
1046.13,3,2
1046.13,1,0
1046.13,0,0
1046.13,0,1
1046.14,2,2
1046.14,2,3
1046.14,3,2
1046.14,2,1
1046.14,0,0
1046.15,0,0
1046.15,1,1
1046.15,2,2
1046.15,2,2
1046.15,2,2
1046.15,2,2
1046.15,2,2
1046.16,1,1
1046.16,1,0
1046.16,1,1
1046.16,1,2
1046.17,2,1
1046.17,2,2
1046.17,2,3
1046.17,4,3
1046.17,2,1
1046.17,0,0
1046.17,0,0
1046.17,0,1
1046.18,2,3
1046.18,2,2
1046.18,1,0
1046.18,0,2
1046.19,2,2
1046.19,1,1
1046.19,2,2
1046.19,2,1
1046.19,1,1
1046.19,2,1
1046.19,1,1
1046.2,1,1
1046.2,2,2
1046.2,1,1
1046.2,1,2
1046.2,2,2
1046.21,2,2
1046.21,2,2
1046.21,2,2
1046.21,1,1
1046.21,0,2
1046.22,1,1
1046.22,0,1
1046.22,1,2
1046.22,2,2
1046.22,2,1
1046.22,1,1
1046.22,1,1
1046.23,3,5
1046.23,4,3
1046.23,0,0
1046.23,0,0
1046.24,1,1
1046.24,2,2
1046.24,2,2
1046.24,2,2
1046.24,1,0
1046.24,0,0
1046.24,2,3
1046.25,4,3
1046.25,1,1
1046.25,1,1
1046.25,0,0
1046.25,0,1
1046.26,2,2
1046.26,2,3
1046.26,2,2
1046.26,1,1
1046.26,1,0
1046.26,0,0
1046.26,2,2
1046.27,3,3
1046.27,4,3
1046.27,2,1
1046.27,1,0
1046.27,0,0
1046.28,1,2
1046.28,2,2
1046.28,2,2
1046.28,1,0
1046.28,0,0
1046.28,1,2
1046.28,2,2
1046.29,2,2
1046.29,2,1
1046.29,1,1
1046.29,1,2
1046.29,3,4
1046.3,2,1
1046.3,0,0
1046.3,1,1
1046.3,1,1
1046.31,1,2
1046.31,3,3
1046.31,2,1
1046.31,1,1
1046.31,1,2
1046.31,2,2
1046.31,2,1
1046.32,0,0
1046.32,0,0
1046.32,0,0
1046.32,0,1
1046.32,2,3
1046.33,5,5
1046.33,4,1
1046.33,0,0
1046.33,0,0
1046.33,0,1
1046.33,1,1
1046.33,1,1
1046.34,1,2
1046.34,2,2
1046.34,2,1
1046.34,1,1
1046.34,1,1
1046.35,2,3
1046.35,3,2
1046.35,1,1
1046.35,1,2
1046.35,3,2
1046.35,1,1
1046.35,0,1
1046.36,1,1
1046.36,2,2
1046.36,3,2
1046.36,1,1
1046.36,1,1
1046.37,1,0
1046.37,0,0
1046.37,0,1
1046.37,2,3
1046.37,4,2
1046.37,1,0
1046.37,1,1
1046.38,1,1
1046.38,2,2
1046.38,2,2
1046.38,2,1
1046.39,1,1
1046.39,2,3
1046.39,3,3
1046.39,3,2
1046.39,2,0
1046.4,0,0
1046.4,0,1
1046.4,2,2
1046.4,2,1
1046.4,1,1
1046.4,1,2
1046.4,2,3
1046.41,3,1
1046.41,1,0
1046.41,1,1
1046.41,1,1
1046.41,0,1
1046.42,1,1
1046.42,3,5
1046.42,6,3
1046.42,1,0
1046.42,0,1
1046.42,1,2
1046.42,2,2
1046.43,2,1
1046.43,1,1
1046.43,1,1
1046.43,1,2
1046.44,2,2
1046.44,2,2
1046.44,1,1
1046.44,1,1
1046.44,1,2
1046.44,2,3
1046.44,3,1
1046.44,1,0
1046.45,1,1
1046.45,2,2
1046.45,2,2
1046.45,1,1
1046.46,1,1
1046.46,1,1
1046.46,2,3
1046.46,3,2
1046.46,2,2
1046.46,0,0
1046.46,0,0
1046.47,1,1
1046.47,2,2
1046.47,2,2
1046.47,1,2
1046.47,2,1
1046.48,1,1
1046.48,1,2
1046.48,1,1
1046.48,1,1
1046.48,1,1
1046.49,1,1
1046.49,2,2
1046.49,2,2
1046.49,1,1
1046.49,1,2
1046.49,3,2
1046.49,1,2
1046.5,2,2
1046.5,1,0
1046.5,0,1
1046.5,1,0
1046.51,1,2
1046.51,2,2
1046.51,2,1
1046.51,1,1
1046.51,1,1
1046.51,2,1
1046.51,0,0
1046.52,0,0
1046.52,0,2
1046.52,4,4
1046.52,5,4
1046.52,2,1
1046.53,0,0
1046.53,0,1
1046.53,1,1
1046.53,1,2
1046.53,2,2
1046.53,2,2
1046.53,2,2
1046.54,1,2
1046.54,2,2
1046.54,2,1
1046.54,0,1
1046.54,1,1
1046.55,1,1
1046.55,1,2
1046.55,2,2
1046.55,2,2
1046.55,2,2
1046.55,2,2
1046.56,1,1
1046.56,0,1
1046.56,1,1
1046.56,1,1
1046.56,2,3
1046.56,3,2
1046.57,1,1
1046.57,0,0
1046.57,1,1
1046.57,1,1
1046.58,2,2
1046.58,2,1
1046.58,1,1
1046.58,1,2
1046.58,3,4
1046.58,2,1
1046.58,0,0
1046.59,1,1
1046.59,1,1
1046.59,1,1
1046.59,1,1
1046.59,2,3
1046.6,3,3
1046.6,1,1
1046.6,0,1
1046.6,1,1
1046.6,0,2
1046.6,1,1
1046.6,1,1
1046.61,1,1
1046.61,1,0
1046.61,0,0
1046.61,0,1
1046.61,4,6
1046.62,5,3
1046.62,1,0
1046.62,0,0
1046.62,1,1
1046.62,1,1
1046.62,1,2
1046.62,2,3
1046.63,2,2
1046.63,2,2
1046.63,1,1
1046.63,1,1
1046.64,0,0
1046.64,0,1
1046.64,2,3
1046.64,2,2
1046.64,2,2
1046.65,2,2
1046.65,2,1
1046.65,1,1
1046.65,2,2
1046.65,2,2
1046.65,1,2
1046.65,3,2
1046.66,1,0
1046.66,0,1
1046.66,2,3
1046.66,3,2
1046.66,1,1
1046.67,0,0
1046.67,0,0
1046.67,1,1
1046.67,2,2
1046.67,2,1
1046.67,1,2
1046.67,2,2
1046.68,2,1
1046.68,1,1
1046.68,1,2
1046.68,2,3
1046.68,3,1
1046.69,1,0
1046.69,1,2
1046.69,2,1
1046.69,1,0
1046.69,1,2
1046.69,3,3
1046.69,2,1
1046.7,0,1
1046.7,0,0
1046.7,0,1
1046.7,2,3
1046.71,2,2
1046.71,1,1
1046.71,2,3
1046.71,3,6
1046.71,5,3
1046.71,0,0
1046.71,0,0
1046.72,0,0
1046.72,0,1
1046.72,1,1
1046.72,0,1
1046.72,2,2
1046.73,2,2
1046.73,1,1
1046.73,1,1
1046.73,2,2
1046.73,2,2
1046.74,2,2
1046.74,2,1
1046.74,1,1
1046.74,1,2
1046.74,2,2
1046.74,1,1
1046.74,1,1
1046.75,2,3
1046.75,4,1
1046.75,0,1
1046.75,2,2
1046.75,3,2
1046.76,1,0
1046.76,0,1
1046.76,1,1
1046.76,1,1
1046.76,1,1
1046.76,1,1
1046.76,1,1
1046.77,0,1
1046.77,1,2
1046.77,3,2
1046.77,2,1
1046.78,0,0
1046.78,2,2
1046.78,2,1
1046.78,0,0
1046.78,0,0
1046.78,2,3
1046.78,4,4
1046.79,2,1
1046.79,1,1
1046.79,1,1
1046.79,2,1
1046.79,1,1
1046.8,1,0
1046.8,0,1
1046.8,1,1
1046.8,1,1
1046.8,1,0
1046.8,1,1
1046.8,2,4
1046.81,5,5
1046.81,3,2
1046.81,0,0
1046.81,0,0
1046.81,0,2
1046.82,2,1
1046.82,1,1
1046.82,1,1
1046.82,2,2
1046.82,2,1
1046.83,1,1
1046.83,1,1
1046.83,1,2
1046.83,2,2
1046.83,2,2
1046.83,2,2
1046.83,1,1
1046.84,1,1
1046.84,2,2
1046.84,2,2
1046.84,2,2
1046.85,1,2
1046.85,2,2
1046.85,1,1
1046.85,1,1
1046.85,2,3
1046.85,4,3
1046.85,1,0
1046.86,0,0
1046.86,0,2
1046.86,1,1
1046.86,1,1
1046.86,1,1
1046.87,1,1
1046.87,0,1
1046.87,0,0
1046.87,0,2
1046.87,3,2
1046.87,3,3
1046.87,3,1
1046.88,1,0
1046.88,0,1
1046.88,1,2
1046.88,2,2
1046.88,1,1
1046.89,1,0
1046.89,0,2
1046.89,2,5
1046.89,5,3
1046.89,1,0
1046.89,0,0
1046.89,0,1
1046.9,1,1
1046.9,1,1
1046.9,0,1
1046.9,1,1
1046.9,1,1
1046.91,0,1
1046.91,0,1
1046.91,1,2
1046.91,2,2
1046.92,2,2
1046.92,3,2
1046.92,2,2
