Program Time [s],data 0,data 1,data 2,data 3
950.262,1,2,3,2
950.262,0,0,1,0
950.263,0,0,1,1
950.263,1,1,2,2
950.264,3,2,2,4
950.265,6,4,2,3
950.265,5,3,1,1
950.266,4,4,2,0
950.266,2,4,2,0
950.267,1,4,2,0
950.267,0,2,1,1
950.268,2,2,1,1
950.269,3,3,1,2
950.269,3,1,0,2
950.27,6,6,2,3
950.27,7,7,5,4
950.271,5,6,3,1
950.272,2,5,3,0
950.272,1,4,3,1
950.273,2,4,2,0
950.273,1,3,3,1
950.274,1,2,1,0
950.274,1,2,1,0
950.275,2,2,1,1
950.276,3,3,1,2
950.276,4,3,1,1
950.277,3,1,0,1
950.277,1,0,0,1
950.278,1,-1,0,3
950.278,2,0,2,5
950.279,5,2,3,7
950.28,6,5,6,7
950.28,6,4,5,7
950.281,6,3,2,4
950.281,6,2,1,4
950.282,5,3,1,3
950.282,5,4,3,1
950.283,2,4,2,0
950.284,1,3,2,0
950.284,2,3,1,0
950.285,0,2,1,0
950.285,0,0,0,0
950.286,1,0,0,0
950.286,0,0,1,1
950.287,0,0,2,3
950.288,1,0,2,4
950.288,0,0,4,6
950.289,3,4,8,8
950.289,8,8,8,8
950.29,10,10,7,7
950.29,13,12,4,2
950.291,10,11,2,0
950.292,6,8,0,-2
950.292,7,8,-2,-6
950.293,1,2,-5,-10
950.293,-5,-2,-6,-8
950.294,-6,-3,-4,-5
950.294,-4,-2,-2,0
950.295,-1,0,1,2
950.296,1,0,3,5
950.296,3,3,7,8
950.297,3,2,7,9
950.297,3,1,7,9
950.298,3,0,4,8
950.298,5,1,3,9
950.299,8,3,3,10
950.3,15,11,4,7
950.3,14,11,1,1
950.301,5,3,-3,-2
950.301,0,-1,-3,-2
950.302,-1,-2,-2,0
950.303,0,0,0,0
950.303,2,2,2,2
950.304,3,5,5,3
950.304,4,6,7,3
950.305,2,4,3,0
950.305,0,1,0,0
950.306,1,2,2,1
950.307,3,4,2,2
950.307,3,1,0,1
950.308,1,0,0,1
950.308,2,0,0,3
950.309,5,3,2,4
950.309,7,6,5,5
950.31,6,8,6,4
950.311,5,7,6,3
950.311,2,6,5,0
950.312,1,5,4,0
950.312,2,5,3,0
950.313,0,1,1,-2
950.313,-4,-2,0,0
950.314,-2,-1,0,1
950.315,0,1,3,3
950.315,2,3,4,4
950.316,3,2,3,5
950.316,3,0,1,6
950.317,6,0,0,7
950.318,10,4,0,6
950.318,13,6,-1,2
950.319,8,4,-1,0
950.319,4,3,0,2
950.32,5,4,3,2
950.32,2,3,2,0
950.321,0,1,1,1
950.321,0,-2,0,2
950.322,2,-4,-2,4
950.323,5,0,0,4
950.323,5,2,1,3
950.324,5,4,3,4
950.324,5,6,5,5
950.325,7,6,5,4
950.325,4,3,1,0
950.326,1,1,-1,-2
950.327,0,0,0,0
950.327,1,2,1,2
950.328,3,3,3,3
950.328,4,3,2,2
950.329,2,1,1,1
950.329,3,2,2,2
950.33,5,6,6,4
950.331,7,9,7,4
950.331,4,8,6,1
950.332,2,5,3,-1
950.332,-1,2,1,-2
950.333,-2,0,2,0
950.333,-3,-1,2,0
950.334,-1,0,3,1
950.335,0,0,2,2
950.335,0,0,3,3
950.336,1,0,3,5
950.336,3,1,3,7
950.337,7,2,1,7
950.337,10,4,0,9
950.338,19,11,0,5
950.339,16,11,0,0
950.339,8,6,-1,-1
950.34,3,1,-1,-3
950.34,0,-1,-3,-3
950.341,-2,-1,-1,-1
950.342,0,0,0,2
950.342,1,2,3,3
950.343,1,1,2,3
950.343,0,0,2,2
950.344,0,1,4,4
950.344,3,4,6,6
950.345,6,6,6,6
950.346,9,7,4,4
950.346,6,5,1,1
950.347,3,2,0,0
950.347,1,2,1,0
950.348,1,0,0,0
950.348,0,1,1,1
950.349,3,3,1,1
950.35,3,4,3,2
950.35,4,7,6,4
950.351,4,7,6,3
950.351,2,5,5,2
950.352,1,2,2,1
950.352,0,1,2,2
950.353,1,3,3,2
950.354,3,4,2,1
950.354,2,3,3,5
950.355,7,5,1,2
950.355,6,3,-1,0
950.356,3,1,-1,0
950.357,1,-1,-3,0
950.357,1,0,-1,2
950.358,2,1,1,4
950.358,4,1,1,3
950.359,4,2,2,4
950.359,5,3,3,6
950.36,6,6,6,6
950.361,5,5,6,5
950.361,3,3,4,4
950.362,4,4,2,2
950.362,2,1,0,0
950.363,0,0,0,0
950.363,0,0,2,2
950.364,2,2,1,3
950.365,3,1,0,3
950.365,6,5,0,2
950.366,6,4,0,1
950.366,6,3,0,2
950.367,7,5,0,0
950.367,3,2,-1,-1
950.368,0,0,0,0
950.369,2,2,1,2
950.369,4,5,5,4
950.37,5,7,6,3
950.37,3,5,6,2
950.371,1,5,5,1
950.371,1,5,5,2
950.372,2,5,6,3
950.373,2,4,4,1
950.373,1,4,3,0
950.374,1,3,1,0
950.374,0,2,1,0
950.375,1,1,0,1
950.375,1,1,0,1
950.376,1,0,0,2
950.377,2,0,0,1
950.377,3,0,1,4
950.378,4,2,1,4
950.378,3,1,1,6
950.379,6,2,2,5
950.379,5,3,4,6
950.38,6,4,3,6
950.381,6,5,4,5
950.381,7,5,2,4
950.382,5,2,0,2
950.382,5,1,-2,0
950.383,0,-1,-3,-1
950.383,0,0,0,0
950.384,0,2,3,2
950.385,1,3,4,4
950.385,4,4,5,4
950.386,3,3,3,3
950.386,3,2,1,1
950.387,3,3,2,2
950.388,3,3,1,1
950.388,4,5,3,3
950.389,5,5,4,2
950.389,3,6,4,2
950.39,4,6,4,1
950.39,2,4,2,0
950.391,2,3,1,0
950.392,3,6,4,0
950.392,2,6,3,0
950.393,2,5,2,0
950.393,1,3,2,1
950.394,2,3,1,1
950.394,1,1,1,0
950.395,0,1,0,0
950.396,0,0,-1,0
950.396,0,-2,-1,2
950.397,1,0,0,4
950.397,5,1,1,5
950.398,5,2,2,6
950.398,7,2,2,6
950.399,5,0,0,6
950.4,7,2,3,7
950.4,6,4,5,7
950.401,4,4,6,5
950.401,2,3,6,4
950.402,1,3,6,3
950.403,-1,0,2,2
950.403,-1,-1,1,3
950.404,1,0,1,6
950.404,10,7,2,7
950.405,17,13,1,2
950.405,10,8,-3,-3
950.406,4,4,-4,-5
950.406,-1,0,-4,-8
950.407,-5,-3,-3,-4
950.408,-2,0,0,1
950.408,3,5,4,1
950.409,1,4,5,4
950.409,2,5,6,6
950.41,8,8,5,6
950.411,11,11,5,2
950.411,7,8,3,0
950.412,3,6,3,-1
950.412,0,3,2,-1
950.413,-1,1,1,-3
950.413,-2,0,1,0
950.414,-1,1,2,2
950.414,2,3,4,3
950.415,3,4,4,2
950.416,0,-2,-1,1
950.416,0,-5,-3,3
950.417,4,0,0,7
950.417,8,4,3,7
950.418,8,3,4,6
950.419,4,0,2,6
950.419,3,0,1,6
950.42,7,4,5,7
950.42,7,5,6,6
950.421,6,5,4,4
950.421,5,4,3,2
950.422,4,2,0,0
950.423,1,1,0,0
950.423,0,0,0,0
950.424,0,0,0,0
950.424,2,3,4,3
950.425,4,5,3,3
950.425,5,6,2,0
950.426,1,2,1,0
950.427,0,0,0,1
950.427,1,0,-2,3
950.428,8,4,0,2
950.428,7,5,0,1
950.429,5,4,3,4
950.43,6,5,3,3
950.43,6,6,4,2
950.431,4,6,4,2
950.431,2,6,4,1
950.432,2,4,4,1
950.432,1,3,4,1
950.433,0,2,3,0
950.433,0,3,4,0
950.434,-1,2,3,0
950.435,0,2,3,1
950.435,0,1,3,2
950.436,1,0,2,3
950.436,1,0,0,4
950.437,4,1,1,5
950.438,6,1,1,5
950.438,6,0,0,6
950.439,6,0,0,6
950.439,7,1,0,5
950.44,7,4,2,5
950.44,8,6,2,5
950.441,8,6,2,4
950.441,6,4,1,2
950.442,5,3,0,0
950.443,3,2,0,0
950.443,0,1,0,0
950.444,0,1,1,0
950.444,1,2,2,2
950.445,2,2,1,1
950.445,1,1,1,0
950.446,0,0,0,2
950.447,1,-1,0,3
950.447,2,-1,-1,4
950.448,4,1,1,5
950.448,6,4,3,5
950.449,7,6,5,7
950.45,7,8,7,6
950.45,6,9,8,4
950.451,4,7,6,1
950.451,2,7,6,0
950.452,0,5,4,0
950.452,0,3,1,-1
950.453,-1,1,0,-2
950.454,-1,1,0,-2
950.454,0,0,0,-2
950.455,0,1,0,0
950.455,0,0,1,0
950.456,-1,0,2,2
950.456,-2,-3,1,4
950.457,-1,-2,3,7
950.458,3,1,6,9
950.458,6,2,6,12
950.459,11,5,5,14
950.459,19,12,4,9
950.46,16,11,1,4
950.46,11,8,-2,1
950.461,9,6,-4,-1
950.462,7,5,-4,-7
950.462,-1,0,-5,-9
950.463,-8,-4,-4,-6
950.463,-8,-5,-1,-1
950.464,-2,-1,1,2
950.464,0,1,3,4
950.465,3,3,5,7
950.466,6,4,5,6
950.466,5,4,5,5
950.467,4,3,5,5
950.467,5,5,5,5
950.468,5,6,4,4
950.468,6,5,3,4
950.469,9,8,2,4
950.47,13,11,1,0
950.47,6,7,0,-4
950.471,-1,2,0,-4
950.471,-1,2,0,-2
950.472,0,3,2,-2
950.472,0,3,2,-1
950.473,0,2,3,0
950.474,0,0,1,1
950.474,0,0,1,2
950.475,2,2,4,4
950.475,2,1,2,4
950.476,2,0,2,6
950.477,6,4,4,8
950.477,10,8,5,6
950.478,6,3,1,2
950.478,3,0,0,1
950.479,2,0,0,2
950.479,4,2,2,5
950.48,4,1,1,5
950.481,6,3,1,4
950.481,7,4,2,3
950.482,4,2,1,2
950.482,3,2,1,2
950.483,2,2,1,1
950.483,0,-1,0,0
950.484,1,0,0,2
950.484,5,3,3,5
950.485,7,6,3,3
950.486,6,4,1,0
950.486,3,3,0,0
950.487,0,1,1,0
950.487,0,1,3,0
950.488,-1,0,3,2
950.489,0,3,6,5
950.489,3,5,7,6
950.49,3,4,7,5
950.49,5,7,7,6
950.491,7,10,6,3
950.491,3,6,3,0
950.492,0,1,1,-2
950.493,-3,0,0,-1
950.493,-3,-1,1,0
950.494,1,3,3,3
950.494,4,5,4,4
950.495,5,6,3,3
950.495,6,6,1,1
950.496,5,2,-1,0
950.497,2,0,-3,0
950.497,2,0,-2,1
950.498,3,0,-1,1
950.498,3,0,0,3
950.499,4,1,0,5
950.499,6,4,3,6
950.5,8,5,3,6
950.501,6,5,2,4
950.501,6,4,2,3
950.502,3,2,1,2
950.502,3,2,1,2
950.503,3,3,2,3
950.503,3,4,3,3
950.504,4,4,3,1
950.505,1,2,2,0
950.505,-1,-2,-1,0
950.506,0,-1,-1,1
950.506,3,1,0,1
950.507,4,3,2,3
950.508,5,5,4,4
950.508,5,5,5,4
950.509,5,6,6,3
950.509,2,4,4,3
950.51,3,6,5,2
950.51,4,5,5,2
950.511,3,5,3,1
950.512,4,6,4,0
950.512,2,5,3,0
950.513,1,5,3,-1
950.513,0,4,2,-1
950.514,0,3,1,0
950.514,0,1,1,-2
950.515,0,0,0,0
950.516,0,0,0,1
950.516,0,-3,-3,1
950.517,2,-3,-2,4
950.517,5,-1,0,7
950.518,7,0,1,8
950.518,8,1,3,8
950.519,6,2,4,8
950.52,6,4,7,8
950.52,4,4,8,8
950.521,5,3,6,7
950.521,5,3,4,7
950.522,6,3,3,7
950.522,13,8,0,4
950.523,16,12,-2,-2
950.524,8,6,-5,-8
950.524,-3,-2,-7,-8
950.525,-7,-5,-5,-5
950.525,-5,-4,-3,-2
950.526,-1,-1,0,1
950.526,2,3,3,4
950.527,5,5,7,6
950.528,5,5,5,5
950.528,5,5,5,4
950.529,4,4,4,3
950.529,4,5,4,4
950.53,5,8,7,5
950.531,8,11,9,3
950.531,4,7,4,-1
950.532,0,2,1,-2
950.532,-1,1,0,0
950.533,0,2,1,0
950.533,2,3,1,0
950.534,2,2,0,0
950.534,1,1,0,0
950.535,1,2,1,2
950.536,2,1,1,3
950.536,3,1,2,2
950.537,1,0,1,2
950.537,1,0,1,4
950.538,4,1,1,6
950.539,5,2,3,7
950.539,5,2,4,7
950.54,7,5,4,7
950.54,8,6,3,4
950.541,4,4,3,4
950.541,2,2,2,2
950.542,0,-1,0,1
950.543,0,-2,0,2
950.543,2,0,0,6
950.544,11,8,2,6
950.544,12,9,1,1
950.545,8,6,0,-1
950.545,2,3,-1,-3
950.546,0,0,-1,-2
950.547,-1,0,0,0
950.547,0,0,1,2
950.548,3,3,2,3
950.548,4,5,5,4
950.549,4,5,6,3
950.549,2,5,5,2
950.55,1,5,6,3
950.551,2,5,5,2
950.551,2,5,6,1
950.552,-1,3,4,0
950.552,-1,1,3,0
950.553,0,1,2,2
950.553,1,1,0,2
950.554,4,3,2,3
950.555,7,6,3,3
950.555,5,5,2,4
950.556,7,4,0,3
950.556,9,5,-1,1
950.557,7,3,-2,0
950.558,2,0,-2,0
950.558,-1,-4,-3,0
950.559,-2,-4,-1,2
950.559,1,0,4,7
950.56,6,5,8,10
950.56,8,7,8,9
950.561,8,6,5,5
950.561,5,3,2,3
950.562,4,2,0,2
950.563,4,1,0,1
950.563,3,3,1,0
950.564,3,4,2,1
950.564,1,1,0,0
950.565,0,0,-1,0
950.565,1,0,-1,0
950.566,1,0,1,2
950.567,2,2,4,4
950.567,4,4,4,4
950.568,4,3,2,2
950.568,2,2,2,2
950.569,4,4,3,4
950.57,7,8,6,4
950.57,7,9,6,3
950.571,4,9,7,1
950.571,1,8,8,0
950.572,-1,2,1,-1
950.572,-1,0,0,-1
950.573,0,1,0,-2
950.574,0,1,0,0
950.574,0,2,1,1
950.575,1,1,1,2
950.575,2,0,0,3
950.576,4,0,-1,3
950.576,4,0,0,3
950.577,5,3,3,5
950.578,5,3,3,5
950.578,5,3,4,5
950.579,3,1,3,4
950.579,5,6,5,5
950.58,7,6,3,5
950.58,7,2,-2,3
950.581,7,0,-6,1
950.582,8,2,-2,2
950.582,5,3,0,0
950.583,2,2,0,1
950.583,1,2,2,0
950.584,0,2,2,1
950.584,0,1,2,1
950.585,1,3,3,2
950.586,3,5,4,5
950.586,11,11,5,3
950.587,11,10,1,-1
950.587,2,3,-1,-4
950.588,-1,0,-2,-4
950.588,-3,-1,-1,-2
950.589,-2,-1,0,0
950.59,0,3,4,4
950.59,5,7,9,6
950.591,6,8,8,6
950.591,4,6,7,3
950.592,3,4,4,1
950.593,1,2,2,2
950.593,3,2,0,1
950.594,3,3,2,1
950.594,1,1,1,0
950.595,0,0,1,2
950.595,1,0,2,4
950.596,2,0,0,4
950.596,3,0,0,4
950.597,3,0,0,5
950.598,6,2,1,5
950.598,6,2,1,6
950.599,7,3,2,6
950.599,9,9,6,6
950.6,8,6,4,3
950.601,3,3,0,0
950.601,1,2,1,1
950.602,1,1,0,1
950.602,1,1,0,0
950.603,1,0,0,0
950.603,1,1,0,1
950.604,2,2,1,1
950.605,3,4,3,2
950.605,2,2,3,3
950.606,2,2,4,4
950.606,2,2,3,2
950.607,3,5,5,4
950.607,5,7,5,3
950.608,6,6,1,0
950.609,3,4,0,0
950.609,2,3,0,0
950.61,3,4,1,0
950.61,3,5,2,0
950.611,2,5,3,1
950.612,2,5,4,1
950.612,1,3,3,1
950.613,1,2,2,0
950.613,1,2,2,0
950.614,0,1,3,2
950.614,0,2,3,3
950.615,3,4,4,4
950.616,4,2,2,3
950.616,4,2,1,3
950.617,4,1,0,3
950.617,4,1,0,3
950.618,3,1,0,4
950.618,3,0,0,4
950.619,4,1,3,6
950.619,6,4,4,6
950.62,5,4,4,5
950.621,3,2,3,4
950.621,4,3,3,5
950.622,6,3,0,2
950.622,4,3,0,0
950.623,2,1,0,0
950.624,1,1,0,1
950.624,1,1,0,1
950.625,2,0,0,1
950.625,1,0,0,2
950.626,3,3,2,4
950.626,7,5,3,4
950.627,7,7,3,2
950.628,4,4,1,0
950.628,2,3,2,0
950.629,2,4,4,2
950.629,2,4,3,0
950.63,2,5,5,1
950.63,1,6,6,2
950.631,2,5,5,0
950.632,0,4,5,0
950.632,1,3,4,1
950.633,1,3,2,1
950.633,3,3,0,2
950.634,8,7,0,0
950.634,5,5,0,-1
950.635,1,2,-1,-1
950.636,0,0,-1,0
950.636,0,-1,-2,0
950.637,1,-1,-1,3
950.637,4,0,1,5
950.638,6,2,2,6
950.638,6,1,3,8
950.639,7,5,5,7
950.64,7,6,5,6
950.64,6,5,4,5
950.641,5,4,4,4
950.641,3,2,1,2
950.642,1,0,0,0
950.643,0,0,0,0
950.643,0,0,1,1
950.644,0,0,1,3
950.644,4,4,4,3
950.645,3,4,3,2
950.646,2,3,3,2
950.646,1,1,3,3
950.646,3,2,2,2
950.647,3,2,0,4
950.648,8,6,1,2
950.648,8,8,1,0
950.649,6,6,0,0
950.649,3,6,2,0
950.65,3,5,3,0
950.651,1,4,3,0
950.651,1,5,3,0
950.652,1,5,5,0
950.652,-2,0,2,0
950.653,-3,-2,0,0
950.653,0,-1,2,3
950.654,3,2,3,5
950.654,4,3,4,6
950.655,8,7,6,6
950.656,7,6,4,4
950.656,3,2,1,1
950.657,1,0,0,1
950.657,1,0,0,2
950.658,3,0,0,2
950.659,3,0,0,4
950.659,6,2,1,5
950.66,8,5,2,6
950.66,9,6,2,5
950.661,9,6,1,3
950.661,5,3,0,1
950.662,3,2,0,0
950.663,3,3,1,0
950.663,2,5,3,0
950.664,0,3,3,0
950.664,0,3,2,-1
950.665,-1,1,1,0
950.665,-2,-1,0,0
950.666,0,0,0,2
950.667,0,-1,-1,3
950.667,4,1,1,5
950.668,6,4,5,7
950.668,6,7,6,6
950.669,6,8,8,6
950.669,6,8,7,4
950.67,4,7,6,2
950.671,3,6,5,1
950.671,2,5,3,-1
950.672,0,2,1,-1
950.672,-2,0,0,0
950.673,0,-1,-1,0
950.673,1,0,0,1
950.674,2,1,1,1
950.675,2,1,1,2
950.675,2,1,1,3
950.676,4,4,4,5
950.676,4,4,4,5
950.677,4,2,2,3
950.678,3,2,2,2
950.678,1,0,2,3
950.679,2,2,4,5
950.679,4,5,6,7
950.68,8,5,2,6
950.68,11,7,0,3
950.681,9,4,-2,0
950.682,3,-2,-5,0
950.682,1,-3,-4,0
950.683,4,2,0,1
950.683,4,3,1,1
950.684,3,1,0,2
950.684,2,1,2,4
950.685,4,0,0,3
950.685,5,1,0,2
950.686,5,3,0,1
950.687,4,4,3,3
950.687,4,6,5,4
950.688,4,6,4,2
950.688,2,4,3,1
950.689,0,2,2,1
950.69,2,5,5,3
950.69,3,5,7,4
950.691,4,7,5,3
950.691,7,10,4,0
950.692,2,5,2,-1
950.692,0,3,3,0
950.693,0,1,1,0
950.694,0,0,-2,0
950.694,2,2,-1,-1
950.695,2,4,1,0
950.695,2,3,2,2
950.696,1,1,1,2
950.696,0,-1,0,1
950.697,1,-2,-1,2
950.698,2,0,2,6
950.698,5,1,2,7
950.699,7,3,3,7
950.699,8,5,6,7
950.7,6,5,5,6
950.7,4,3,4,4
950.701,4,3,5,6
950.702,5,4,4,4
950.702,2,2,1,0
950.703,1,0,-1,0
950.703,1,0,-1,0
950.704,4,2,0,1
950.704,5,4,1,2
950.705,4,2,0,0
950.706,1,1,0,0
950.706,1,0,0,1
950.707,4,2,1,2
950.707,5,4,3,3
950.708,5,5,3,2
950.708,4,5,3,1
950.709,4,7,4,2
950.71,6,9,5,1
950.71,4,9,7,2
950.711,2,5,4,0
950.711,0,2,2,-1
950.712,-1,0,1,0
950.712,-2,1,1,0
950.713,0,1,1,0
950.714,0,0,2,1
950.714,1,2,3,4
950.715,3,3,4,5
950.715,5,4,3,5
950.716,7,4,1,4
950.716,6,2,0,3
950.717,4,0,0,3
950.718,4,0,0,3
950.718,4,0,-1,2
950.719,4,0,0,4
950.719,7,5,5,5
950.72,7,6,5,7
950.721,7,5,4,4
950.721,3,2,1,1
950.722,1,0,0,0
950.722,0,0,0,0
950.723,2,2,2,3
950.723,4,3,2,2
950.724,2,1,0,1
950.725,2,1,1,2
950.725,3,2,1,3
950.726,4,4,2,2
950.726,4,4,2,2
950.727,2,2,1,1
950.727,2,2,2,1
950.728,2,3,2,3
950.729,5,5,4,4
950.729,5,5,4,3
950.73,6,6,3,2
950.73,3,5,4,0
950.731,2,6,4,1
950.731,3,7,5,0
950.732,2,5,3,0
950.733,0,3,1,0
950.733,0,1,0,0
950.734,0,1,0,0
950.734,1,1,0,1
950.735,3,2,0,3
950.735,5,4,1,2
950.736,4,2,0,1
950.737,3,1,0,1
950.737,4,1,0,3
950.738,3,0,1,3
950.738,2,-1,1,4
950.739,3,0,2,5
950.74,3,2,5,7
950.74,4,4,6,7
950.741,3,3,6,5
950.741,2,2,5,7
950.742,6,2,2,6
950.742,11,8,2,2
950.743,7,5,0,0
950.743,0,1,0,-1
950.744,0,1,1,0
950.745,0,2,1,0
950.745,3,6,2,-1
950.746,3,6,2,-1
950.746,0,0,-1,-1
950.747,0,-4,-4,0
950.748,0,-5,-6,1
950.748,5,1,0,6
950.749,11,8,6,8
950.749,12,11,8,8
950.75,11,12,8,6
950.75,7,8,5,1
950.751,2,4,1,-1
950.752,0,4,1,-2
950.752,0,3,2,-1
950.753,-1,3,2,0
950.753,0,1,1,-1
950.754,-2,0,0,-2
950.755,-2,0,3,1
950.755,-1,1,5,5
950.756,2,1,3,7
950.756,5,1,1,6
950.757,5,0,0,5
950.757,7,2,0,5
950.758,8,3,1,6
950.758,10,5,1,8
950.759,15,9,0,6
950.76,14,9,-2,-3
950.76,0,0,-4,-4
950.761,-4,-3,-1,0
950.761,-2,-1,1,1
950.762,0,0,2,3
950.762,1,1,4,4
950.763,3,4,5,5
950.764,4,4,5,4
950.764,3,3,4,3
950.765,1,1,1,1
950.765,0,-1,0,1
950.766,0,-1,0,3
950.766,3,3,4,5
950.767,6,6,5,5
950.768,5,4,3,3
950.768,5,5,4,4
950.769,9,10,4,3
950.769,10,11,4,-1
950.77,2,6,2,-3
950.771,-2,1,0,-4
950.771,-2,2,2,-2
950.772,-1,5,5,0
950.772,0,4,4,1
950.773,0,1,1,1
950.773,1,0,0,2
950.774,3,1,0,1
950.775,3,1,1,3
950.775,4,3,1,4
950.776,5,3,1,4
950.776,6,3,1,5
950.777,7,3,0,2
950.777,4,1,0,1
950.778,3,0,0,2
950.779,4,1,0,5
950.779,5,2,1,4
950.78,5,3,3,4
950.78,3,2,3,4
950.781,2,2,3,5
950.781,2,1,2,5
950.782,4,3,3,4
950.783,4,3,3,4
950.783,6,5,2,2
950.784,5,4,1,0
950.784,2,5,2,0
950.785,1,4,3,0
950.786,0,2,0,-1
950.786,-1,0,-1,-2
950.787,-1,0,0,0
950.787,0,0,1,3
950.788,4,3,4,5
950.788,7,6,5,5
950.789,7,6,5,4
950.79,6,6,6,4
950.79,5,6,6,3
950.791,3,5,4,2
950.791,3,6,4,1
950.792,1,5,3,0
950.792,1,2,1,-1
950.793,0,2,1,-1
950.794,-1,0,0,0
950.794,0,2,1,2
950.795,3,3,1,2
950.795,4,3,1,2
950.796,3,1,1,2
950.796,2,0,-1,2
950.797,1,0,0,4
950.797,4,0,0,4
950.798,3,1,1,5
950.799,5,2,3,6
950.799,5,4,6,6
950.8,4,3,5,6
950.8,2,2,3,4
950.801,2,1,4,5
950.802,2,1,3,5
950.802,3,1,2,6
950.803,9,6,2,5
950.803,10,7,0,1
950.804,5,3,-1,-1
950.804,1,0,-2,-1
950.805,1,0,-1,0
950.806,3,2,-1,0
950.806,6,5,0,1
950.807,7,7,0,-1
950.807,2,3,0,0
950.808,0,1,0,0
950.808,2,4,3,1
950.809,2,5,4,1
950.81,1,4,5,3
950.81,3,5,6,4
950.811,4,5,5,3
950.811,4,5,5,2
950.812,3,6,5,1
950.812,2,6,6,1
950.813,2,5,4,0
950.814,-1,2,2,-2
950.814,-5,-2,-1,0
950.815,-2,-2,0,2
950.815,2,2,2,2
950.816,1,0,2,5
950.816,1,-3,-1,6
950.817,5,0,0,6
950.818,7,0,1,6
950.818,7,1,2,9
950.819,13,8,4,10
950.819,16,11,4,5
950.82,9,4,-1,0
950.82,4,1,-2,-1
950.821,2,3,0,0
950.822,2,1,0,0
950.822,1,2,1,0
950.823,1,1,1,0
950.823,1,1,0,0
950.824,1,1,0,0
950.825,2,1,0,0
950.825,2,1,2,2
950.826,3,4,4,3
950.826,3,2,2,2
950.827,1,1,1,3
950.827,3,3,3,4
950.828,4,4,5,4
950.829,3,5,6,2
950.829,2,6,6,4
950.83,4,7,6,2
950.83,2,6,4,1
950.831,1,3,2,1
950.831,2,3,0,0
950.832,2,3,0,0
950.833,2,4,1,0
950.833,2,2,0,0
950.834,1,3,2,0
950.834,2,3,2,2
950.835,1,1,1,1
950.835,0,0,0,1
950.836,0,-1,1,4
950.837,3,1,2,6
950.837,6,2,1,6
950.838,7,3,1,5
950.838,7,1,0,6
950.839,9,5,1,4
950.839,8,6,4,3
950.84,6,5,3,4
950.841,4,4,3,2
950.841,2,2,0,0
950.842,1,1,1,0
950.842,0,1,0,0
950.843,0,0,0,0
950.844,2,2,1,1
950.844,4,4,2,1
950.845,3,3,1,0
950.845,0,0,0,0
950.846,1,1,2,3
950.846,4,3,3,4
950.847,4,3,2,4
950.848,4,2,2,2
950.848,3,4,4,4
950.849,6,5,5,4
950.849,5,4,4,4
950.85,6,5,3,3
950.85,4,6,3,1
950.851,2,5,3,1
950.852,3,5,3,0
950.852,0,2,2,0
950.853,-1,1,2,0
950.853,-1,0,1,-1
950.854,-2,-1,1,2
950.854,1,0,2,4
950.855,5,2,1,4
950.856,5,2,0,4
950.856,8,6,2,5
950.857,9,6,2,4
950.857,8,3,-1,0
950.858,4,0,-2,0
950.858,2,0,0,0
950.859,0,0,1,2
950.86,1,1,4,4
950.86,3,3,5,5
950.861,2,2,5,5
950.861,3,3,5,8
950.862,10,6,3,7
950.862,15,12,1,3
950.863,12,11,0,-2
950.864,6,6,-1,-4
950.864,1,2,-3,-6
950.865,-3,-1,-4,-7
950.865,-6,-5,-5,-5
950.866,-4,-3,0,0
950.867,1,2,4,5
950.867,4,5,6,5
950.868,2,1,4,5
950.868,2,2,6,7
950.869,5,5,7,7
950.869,6,6,8,7
950.87,5,7,9,6
950.871,4,5,6,4
950.871,3,5,5,1
950.872,1,6,6,1
950.872,1,6,5,0
950.873,1,2,1,-1
950.873,0,0,-1,-2
950.874,-1,-1,-2,0
950.875,0,1,0,1
950.875,3,1,0,2
950.876,3,0,0,3
950.876,4,-1,-2,4
950.877,7,1,0,4
950.877,7,2,0,5
950.878,6,1,1,5
950.879,5,2,2,7
950.879,7,6,5,7
950.88,7,5,4,4
950.88,2,1,2,2
950.881,1,1,3,3
950.881,3,3,2,5
950.882,7,6,2,2
950.882,5,4,0,0
950.883,1,0,-2,-2
950.884,0,0,0,0
950.884,2,3,1,1
950.885,3,3,1,1
950.885,2,3,0,0
950.886,1,1,0,1
950.886,2,2,1,1
950.887,3,4,2,2
950.888,3,3,2,1
950.888,2,4,3,1
950.889,2,3,3,3
950.889,2,3,3,3
950.89,4,6,6,5
950.891,4,7,6,3
950.891,5,8,7,3
950.892,3,7,5,1
950.892,2,6,4,0
950.893,0,3,1,-1
950.893,0,0,0,-1
950.894,-1,-1,0,-1
950.895,-2,-3,-1,0
950.895,0,-1,0,2
950.896,3,0,1,4
950.896,4,1,3,5
950.897,5,3,4,7
950.897,6,4,5,7
950.898,6,3,3,7
950.899,7,3,1,7
950.899,10,6,1,4
950.9,10,7,2,2
950.9,5,4,1,0
950.901,1,3,0,-1
950.901,0,-1,-1,-2
950.902,-2,-5,-3,0
950.903,0,-2,-1,2
950.903,4,4,3,4
950.904,6,6,5,4
950.904,5,5,3,2
950.905,3,2,1,2
950.906,5,3,1,4
950.906,8,5,0,0
950.907,4,3,0,0
950.907,2,2,0,0
950.908,2,3,2,1
950.908,3,5,4,2
950.909,2,4,4,2
950.91,1,2,1,1
950.91,2,4,4,3
950.911,3,5,6,3
950.911,4,6,5,2
950.912,3,6,5,2
950.912,2,5,4,0
950.913,1,3,2,0
950.914,0,1,0,0
950.914,1,0,0,0
950.915,0,0,0,1
950.915,1,0,0,1
950.916,2,2,1,3
950.916,4,2,2,4
950.917,3,1,1,3
950.917,3,0,0,3
950.918,3,0,1,5
950.919,4,1,2,6
950.919,6,5,6,7
950.92,7,6,5,6
950.92,6,5,4,5
950.921,4,4,2,4
950.922,4,4,3,2
950.922,3,1,0,0
950.923,1,2,1,0
950.923,0,1,0,0
950.924,1,1,1,0
950.924,0,0,0,0
950.925,0,-3,-2,1
950.926,1,-1,0,3
950.926,4,3,3,5
950.927,5,4,5,6
950.927,6,3,3,4
950.928,4,3,4,5
950.928,4,4,5,3
950.929,2,4,5,2
950.93,2,6,7,3
950.93,3,8,7,2
950.931,2,4,3,2
950.931,3,5,1,1
950.932,6,7,0,0
950.932,5,6,0,-1
950.933,3,4,0,0
950.934,4,2,-1,0
950.934,7,5,-2,-2
950.935,5,4,-2,-3
950.935,2,2,-3,-4
950.936,-2,-2,-3,-2
950.937,0,-2,-2,1
950.937,2,0,0,3
950.938,3,-1,0,3
950.938,3,0,3,8
950.939,6,4,7,10
950.939,10,9,10,10
950.94,8,7,7,7
950.941,5,5,4,4
950.941,4,4,4,2
950.942,1,1,1,2
950.942,0,0,0,0
950.943,0,-1,0,0
950.943,0,0,0,3
950.944,2,1,2,3
950.945,3,3,3,3
950.945,3,3,4,3
950.946,3,4,4,3
950.946,4,6,4,3
950.947,4,4,1,1
950.947,5,3,-1,0
950.948,1,0,-3,-1
950.949,0,0,0,1
950.949,3,2,2,3
950.95,5,6,6,4
950.95,7,9,7,4
950.951,6,11,9,2
950.951,3,9,6,1
950.952,1,3,2,0
950.953,0,1,0,-1
950.953,0,1,-1,-1
950.954,0,0,0,-1
950.954,0,1,1,0
950.955,1,0,0,0
950.955,2,0,0,2
950.956,2,0,0,3
950.957,2,0,0,3
950.957,1,0,2,5
950.958,4,1,4,7
950.958,6,2,4,8
950.959,9,5,5,7
950.959,9,7,6,8
950.96,10,7,4,5
950.961,8,5,1,1
950.961,4,3,0,0
950.962,0,0,-1,-2
950.962,-1,-1,0,-1
950.963,-2,0,1,0
950.964,-2,0,3,0
950.964,-2,0,5,4
950.965,1,2,3,4
950.965,2,2,3,4
950.966,6,5,3,6
950.966,11,9,2,4
950.967,10,9,1,0
950.967,5,2,-3,-1
950.968,5,4,-2,-1
950.969,3,4,0,-1
950.969,1,4,3,0
950.97,0,3,4,1
950.97,0,0,1,3
950.971,3,0,1,3
950.972,5,5,4,4
950.972,5,7,5,4
950.973,5,6,4,3
950.973,4,6,3,2
950.974,2,4,3,0
950.974,0,1,0,0
950.975,-1,-1,-1,0
950.976,0,-1,0,1
950.976,1,0,1,5
950.977,4,2,3,5
950.977,4,1,3,4
950.978,3,1,3,5
950.978,3,2,4,6
950.979,4,4,5,5
950.98,5,4,6,5
950.98,3,2,3,4
950.981,3,1,2,4
950.981,5,5,2,3
950.982,3,2,0,1
950.982,1,-2,-2,1
950.983,2,-1,-2,2
950.984,6,2,0,3
950.984,8,7,2,4
950.985,11,10,3,3
950.985,8,8,0,0
950.986,4,3,-1,-3
950.986,0,0,-3,-3
950.987,-1,0,-1,0
950.988,2,3,2,0
950.988,3,4,2,0
950.989,1,4,3,1
950.989,1,3,4,3
950.99,2,5,6,3
950.991,3,6,7,4
950.991,5,8,7,3
950.992,3,6,6,2
950.992,2,3,2,0
950.993,0,1,1,0
950.993,0,0,0,0
950.994,0,1,2,3
950.994,3,3,4,4
950.995,4,3,3,3
950.996,2,1,1,2
950.996,1,1,1,3
950.997,3,1,2,5
950.997,6,3,1,4
950.998,6,3,0,4
950.998,9,3,-1,1
950.999,5,1,-1,1
951,2,0,0,2
951,1,0,2,4
951.001,2,1,4,4
951.001,2,1,4,4
951.002,2,1,3,4
951.003,2,2,3,4
951.003,2,2,3,4
951.004,4,2,3,3
951.004,3,1,0,3
951.005,4,1,0,4
951.005,9,7,0,3
951.006,10,8,0,0
951.007,2,2,0,-1
951.007,-1,0,-2,-2
951.008,-1,-1,0,0
951.008,0,1,1,2
951.009,3,5,6,5
951.009,7,8,8,5
951.01,8,9,7,3
951.011,4,6,4,0
951.011,0,3,2,0
951.012,0,3,2,0
951.012,1,2,2,1
951.013,2,3,2,1
951.013,2,3,1,0
951.014,1,2,0,0
951.015,1,2,1,3
951.015,4,2,1,2
951.016,4,3,1,2
951.016,3,0,0,1
951.017,2,-1,-2,2
951.017,3,0,-1,4
951.018,6,3,1,5
951.019,7,6,4,6
951.019,5,5,5,5
951.02,6,4,4,4
951.02,4,2,2,3
951.021,3,1,2,2
951.021,2,1,1,1
951.022,0,0,1,2
951.023,3,2,0,3
951.023,7,4,1,1
951.024,5,4,0,2
951.024,4,5,2,1
951.025,3,3,1,0
951.025,0,1,0,0
951.026,0,0,0,0
951.027,1,1,0,1
951.027,2,2,1,2
951.028,2,3,3,3
951.028,4,5,5,3
951.029,3,5,5,3
951.029,4,6,5,4
951.03,5,7,5,4
951.031,4,7,6,2
951.031,3,6,5,2
951.032,2,5,3,0
951.032,0,2,0,-1
951.033,0,1,0,-1
951.034,1,1,0,0
951.034,2,1,0,0
951.035,1,0,1,2
951.035,1,0,0,2
951.036,3,0,1,4
951.036,4,0,1,4
951.037,4,2,1,3
951.038,4,2,1,4
951.038,4,3,4,5
951.039,5,3,4,6
951.039,5,4,6,6
951.04,4,2,4,5
951.04,1,0,2,4
951.041,1,0,2,4
951.042,2,1,2,5
951.042,4,2,1,5
951.043,7,5,2,3
951.043,9,8,2,2
951.044,8,8,0,0
951.044,5,3,-2,-2
951.045,1,1,-3,-3
951.046,0,-1,-3,-3
951.046,-2,-3,-3,-1
951.047,0,0,1,2
951.047,1,2,5,4
951.048,2,3,6,5
951.049,2,3,7,7
951.049,4,5,7,6
951.05,5,8,9,7
951.05,7,9,7,6
951.051,10,11,5,4
951.051,10,11,3,0
951.052,8,10,0,-5
951.053,0,2,-3,-7
951.053,-3,0,-3,-6
951.054,-4,0,-2,-4
951.054,-2,0,0,-1
951.055,-1,0,1,0
951.055,0,-1,0,1
951.056,0,-6,-4,4
951.057,5,-1,0,8
951.057,9,3,3,9
951.058,10,4,4,9
951.058,10,5,4,8
951.059,9,6,5,7
951.059,8,6,5,5
951.06,5,4,3,3
951.061,3,1,1,1
951.061,1,1,1,1
951.062,1,1,2,1
951.062,0,1,1,1
951.063,0,0,1,0
951.063,0,0,2,2
951.064,2,3,4,4
951.065,4,3,3,3
951.065,3,3,2,2
951.066,2,1,0,2
951.066,4,2,0,1
951.067,4,3,1,1
951.067,3,2,1,1
951.068,3,3,2,2
951.069,3,1,0,3
951.069,3,0,0,3
951.07,7,7,6,6
951.07,8,12,9,4
951.071,6,11,9,1
951.071,2,8,5,0
951.072,0,4,2,-2
951.073,-2,0,0,-3
951.073,-2,0,0,-2
951.074,-2,0,0,-1
951.074,0,1,1,0
951.075,1,2,1,3
951.076,4,1,0,3
951.076,4,1,0,3
951.077,4,0,-1,4
951.077,5,0,0,5
951.078,7,2,0,7
951.078,8,3,1,7
951.079,9,6,3,6
951.08,7,5,5,5
951.08,4,3,4,4
951.081,3,3,4,3
951.081,3,4,3,1
951.082,0,0,0,0
951.082,0,0,0,1
951.083,1,0,1,1
951.083,2,2,2,2
951.084,2,2,2,2
951.085,2,2,1,2
951.085,3,3,3,2
951.086,3,4,3,2
951.086,3,4,2,1
951.087,1,2,0,1
951.088,3,3,1,2
951.088,5,5,3,3
951.089,5,6,3,1
951.089,2,4,3,2
951.09,4,3,2,1
951.09,2,3,2,2
951.091,3,5,4,2
951.092,4,5,4,2
951.092,4,5,4,2
951.093,3,3,1,0
951.093,1,2,1,0
951.094,0,0,0,0
951.094,2,1,0,1
951.095,1,1,0,1
951.096,0,0,0,0
951.096,0,0,0,3
951.097,1,1,2,4
951.097,4,2,4,5
951.098,3,1,4,7
951.099,3,1,3,7
951.099,5,3,5,8
951.1,9,6,4,6
951.1,8,6,4,5
951.101,7,6,4,4
951.101,6,3,0,2
951.102,5,2,-2,0
951.102,5,3,-4,-4
951.103,0,1,-2,-4
951.104,-2,0,0,-1
951.104,-1,0,0,0
951.105,0,0,1,1
951.105,1,1,2,3
951.106,4,4,2,4
951.107,7,6,5,5
951.107,6,5,4,4
951.108,5,4,2,1
951.108,2,3,3,1
951.109,0,2,3,2
951.109,1,3,6,5
951.11,3,6,7,6
951.111,6,7,6,5
951.111,10,10,4,1
951.112,8,8,1,-2
951.112,1,3,0,-4
951.113,-2,0,-1,-3
951.113,-2,-1,-2,-2
951.114,-1,0,0,0
951.115,0,0,1,1
951.115,2,2,3,4
951.116,4,2,2,4
951.116,4,1,0,4
951.117,4,0,0,4
951.117,3,0,1,5
951.118,5,0,2,8
951.119,10,5,4,9
951.119,12,10,6,6
951.12,7,6,5,4
951.12,3,2,1,1
951.121,0,0,1,0
951.121,0,0,0,0
951.122,0,0,0,0
951.122,-1,1,2,1
951.123,1,2,2,2
951.124,3,3,2,2
951.124,4,3,1,2
951.125,4,4,1,2
951.125,4,3,1,2
951.126,3,0,0,2
951.127,4,2,0,2
951.127,5,3,0,2
951.128,4,2,1,3
951.128,4,3,2,4
951.129,6,5,4,5
951.129,6,7,5,4
951.13,5,6,5,2
951.131,3,7,5,1
951.131,2,7,6,0
951.132,1,5,3,-1
951.132,-1,1,0,-2
951.133,0,1,0,-2
951.133,0,1,0,-1
951.134,0,1,1,0
951.135,2,2,2,3
951.135,3,2,1,3
951.136,3,0,0,2
951.136,3,0,0,3
951.137,5,1,0,5
951.138,5,0,0,5
951.138,5,0,0,6
951.139,7,3,3,7
951.139,7,6,6,7
951.14,6,5,6,7
951.14,7,5,4,4
951.141,4,4,3,1
951.142,1,2,1,0
951.142,-1,1,0,-1
951.143,-1,-2,-2,0
951.143,1,0,0,2
951.144,4,3,1,3
951.144,6,5,3,3
951.145,6,4,0,1
951.146,4,2,0,0
951.146,2,2,0,0
951.147,4,3,2,1
951.147,3,3,1,1
951.148,2,3,1,0
951.148,0,2,3,2
951.149,0,3,6,3
951.15,2,4,7,4
951.15,1,3,6,5
951.151,3,6,7,5
951.151,6,9,8,4
951.152,3,5,5,1
951.152,0,-1,-2,0
951.153,1,-1,-3,0
951.154,3,2,0,1
951.154,5,5,2,3
951.155,5,5,3,1
951.155,3,3,1,1
951.156,1,0,0,1
951.156,0,-2,-2,1
951.157,2,0,-1,3
951.158,4,0,0,4
951.158,3,2,2,5
951.159,5,4,5,8
951.159,7,6,7,7
951.16,7,6,5,5
951.161,7,6,4,4
951.161,6,6,3,2
951.162,4,4,0,0
951.162,1,1,-1,1
951.163,7,7,0,0
951.163,6,5,-2,-4
951.164,0,0,-3,-4
951.165,-5,-2,-1,-2
951.165,-4,-3,0,0
951.166,-3,-4,0,3
951.166,3,1,2,5
951.167,6,4,5,7
951.167,7,5,6,7
951.168,7,6,6,6
951.169,8,7,5,7
951.169,10,8,3,3
951.17,7,8,6,3
951.17,5,7,5,1
951.171,3,6,4,-1
951.171,0,4,2,-2
951.172,-1,3,2,-2
951.173,-1,3,3,-1
951.173,0,3,2,0
951.174,0,2,1,0
951.174,-1,-2,-3,-1
951.175,-1,-3,-3,0
951.175,2,0,0,4
951.176,5,1,2,5
951.177,5,2,2,5
951.177,5,1,1,6
951.178,5,1,1,7
951.178,7,3,3,8
951.179,9,6,5,7
951.179,8,8,6,5
951.18,5,4,2,2
951.181,2,1,1,1
951.181,0,0,0,0
951.182,1,1,2,2
951.182,1,1,1,1
951.183,0,1,1,1
951.183,1,2,3,3
951.184,3,2,2,2
951.185,2,1,2,3
951.185,4,3,1,3
951.186,8,5,1,1
951.186,4,4,0,0
951.187,2,2,1,1
951.188,2,1,1,1
951.188,2,2,1,1
951.189,3,4,3,2
951.189,5,7,7,4
951.19,6,10,8,4
951.19,6,10,6,1
951.191,3,8,4,-1
951.192,0,5,0,-1
951.192,3,6,0,-2
951.193,2,3,-1,-4
951.193,-2,-2,-4,-3
951.194,-3,-3,-1,0
951.194,1,1,1,2
951.195,3,2,3,4
951.196,2,1,3,4
951.196,1,-1,1,5
951.197,2,-1,1,6
951.197,4,0,3,8
951.198,6,3,5,10
951.198,7,4,4,8
951.199,7,5,7,9
951.199,7,5,6,5
951.2,2,1,3,3
951.201,0,-1,1,2
951.201,0,-2,0,4
951.202,2,0,3,5
951.202,5,3,2,4
951.203,8,4,0,3
951.204,8,5,-1,2
951.204,13,10,-1,-1
951.205,8,9,-1,-4
951.205,3,5,-1,-4
951.206,0,0,-3,-4
951.206,-2,0,-3,-4
951.207,-1,0,-1,-1
951.208,0,2,3,1
951.208,3,5,6,4
951.209,3,6,7,4
951.209,3,6,7,4
951.21,3,6,7,3
951.21,3,6,5,3
951.211,3,7,6,3
951.212,4,5,3,1
951.212,1,2,2,0
951.213,-2,0,0,0
951.213,0,0,0,1
951.214,1,2,2,3
951.214,4,4,4,4
951.215,5,3,2,4
951.216,8,5,1,3
951.216,8,4,-2,0
951.217,2,0,-2,0
951.217,0,-3,-2,0
951.218,0,-5,-3,3
951.218,3,-2,-1,6
951.219,7,3,3,7
951.22,8,6,7,7
951.22,6,5,8,8
951.221,4,3,4,6
951.221,4,2,2,4
951.222,5,3,3,2
951.222,3,4,3,1
951.223,1,2,2,0
951.224,0,0,2,0
951.224,-1,-1,0,1
951.225,0,-1,0,2
951.225,2,0,0,3
951.226,5,4,2,5
951.226,9,9,6,5
951.227,8,7,3,3
951.228,8,8,1,0
951.228,5,7,1,-2
951.229,1,3,0,-3
951.229,0,3,2,0
951.23,0,2,3,0
951.23,-1,1,3,2
951.231,1,4,4,1
951.232,2,5,5,2
951.232,2,5,5,2
951.233,1,3,2,2
951.233,4,4,1,0
951.234,3,2,0,0
951.234,1,2,1,2
951.235,2,2,2,1
951.236,1,0,1,2
951.236,1,0,0,3
951.237,4,1,0,4
951.237,6,3,3,7
951.238,6,1,1,6
951.239,7,1,0,4
951.239,6,3,2,4
951.24,6,4,3,4
951.24,4,4,2,3
951.241,4,4,4,3
951.241,3,3,1,0
951.242,0,0,0,0
951.243,1,1,1,0
951.243,2,2,2,1
951.244,2,1,2,2
951.244,2,0,0,2
951.245,2,0,0,2
951.245,2,0,0,3
951.246,3,2,3,5
951.247,5,3,3,5
951.247,6,4,3,4
951.248,4,4,4,3
951.248,5,5,3,3
951.249,4,5,4,2
951.249,3,7,6,3
951.25,4,7,5,3
951.251,4,7,4,0
951.251,2,4,2,0
951.252,1,4,0,-1
951.252,2,4,0,-2
951.253,1,2,0,-2
951.253,0,3,1,-2
951.254,0,2,1,0
951.255,0,0,0,0
951.255,0,0,1,3
951.256,3,0,0,4
951.256,4,1,1,4
951.257,4,1,1,6
951.258,4,1,1,6
951.258,6,3,2,7
951.259,8,6,4,7
951.259,7,6,5,6
951.26,5,3,3,4
951.26,3,2,1,3
951.261,3,2,0,2
951.262,3,1,0,1
951.262,2,1,0,1
951.263,2,1,1,2
951.263,3,2,2,3
951.264,3,2,1,2
951.264,2,1,1,2
951.265,3,2,2,1
951.266,2,2,3,2
951.266,2,2,1,2
951.267,2,2,0,1
951.267,2,2,1,2
951.268,3,3,3,3
951.268,5,5,3,3
951.269,5,6,5,3
951.27,6,8,6,2
951.27,4,7,5,1
951.271,2,5,4,0
951.271,1,5,3,0
951.272,0,4,3,-1
951.272,-1,3,2,-1
951.273,0,1,0,-1
951.274,0,1,1,0
951.274,-1,1,4,1
951.275,0,0,3,1
951.275,-1,-1,2,3
951.276,1,0,2,6
951.276,5,1,2,7
951.277,7,1,0,7
951.278,8,0,-1,8
951.278,13,4,-2,7
951.279,17,9,0,6
951.279,14,10,1,2
951.28,8,7,1,0
951.28,2,1,-2,-2
951.281,-1,-4,-5,-1
951.282,1,-2,-4,0
951.282,4,2,1,2
951.283,4,4,3,3
951.283,4,5,4,2
951.284,2,3,3,1
951.284,1,2,2,1
951.285,1,3,3,1
951.286,1,3,2,2
951.286,2,3,2,1
951.287,2,3,2,1
951.287,1,1,1,1
951.288,1,2,2,2
951.289,1,3,5,4
951.289,5,4,5,5
951.29,5,8,7,4
951.29,4,7,6,2
951.291,2,5,5,1
951.291,0,3,4,1
951.292,1,4,4,0
951.293,0,2,2,0
951.293,-2,0,1,0
951.294,1,1,2,2
951.294,3,5,4,2
951.295,2,2,2,2
951.295,1,0,1,2
951.296,0,-1,0,2
951.297,1,-2,0,3
951.297,4,-1,0,6
951.298,7,1,0,7
951.298,10,5,1,6
951.299,10,8,3,4
951.299,7,7,4,4
951.3,7,7,3,1
951.301,5,6,2,1
951.301,2,3,0,-1
951.302,1,0,-2,-2
951.302,0,-1,-3,-1
951.303,2,1,0,0
951.303,3,3,0,2
951.304,5,6,4,2
951.305,3,5,5,2
951.305,2,2,1,1
951.306,0,0,0,1
951.306,0,1,2,1
951.307,1,0,3,3
951.307,2,2,4,3
951.308,1,2,5,4
951.309,0,1,6,5
951.309,0,0,4,5
951.31,1,1,5,6
951.31,4,6,8,8
951.311,9,11,11,7
951.311,8,10,7,4
951.312,5,7,3,3
951.313,8,6,-1,-1
951.313,6,4,-4,-6
951.314,-1,-1,-6,-6
951.314,-3,-2,-5,-4
951.315,0,0,-3,0
951.315,5,4,0,3
951.316,11,8,0,1
951.317,7,6,1,0
951.317,2,1,0,0
951.318,0,-1,-1,0
951.318,-1,-3,-2,2
951.319,1,-1,1,7
951.319,5,1,4,10
951.32,9,5,5,9
951.321,8,5,7,8
951.321,6,5,6,6
951.322,4,3,4,5
951.322,3,4,4,2
951.323,1,2,3,0
951.323,0,0,0,0
951.324,0,0,0,0
951.325,0,0,1,1
951.325,0,1,1,2
951.326,1,0,1,3
951.326,3,2,3,5
951.327,6,5,3,5
951.328,9,8,2,2
951.328,6,7,3,1
951.329,2,3,1,0
951.329,1,2,1,1
951.33,3,5,2,0
951.33,2,6,3,0
951.331,1,5,4,0
951.332,1,5,4,1
951.332,1,5,4,1
951.333,0,2,2,0
951.333,0,1,0,0
951.334,2,2,1,1
951.334,4,2,3,4
951.335,5,4,3,2
951.336,2,1,0,0
951.336,0,-1,-1,0
951.337,2,0,0,2
951.337,3,0,0,4
951.338,2,0,2,5
951.338,4,1,3,6
951.339,7,5,6,8
951.34,8,7,7,7
951.34,6,5,5,5
951.341,5,4,4,5
951.341,4,3,2,1
951.342,2,2,0,0
951.342,0,0,-1,0
951.343,1,0,0,1
951.344,4,3,0,1
951.344,4,3,0,0
951.345,2,1,0,0
951.345,2,2,0,1
951.346,1,1,0,1
951.346,2,0,0,2
951.347,0,0,1,3
951.348,1,2,5,5
951.348,4,5,8,6
951.349,6,6,8,7
951.349,7,9,8,6
951.35,7,7,4,2
951.35,4,6,3,0
951.351,3,5,1,0
951.352,4,6,1,-1
951.352,0,2,0,-2
951.353,-1,0,-1,-3
951.353,-3,-3,-2,-2
951.354,-2,-2,-1,1
951.354,3,1,2,3
951.355,5,4,3,6
951.356,7,3,2,4
951.356,6,5,3,5
951.357,6,4,2,3
951.357,5,3,0,2
951.358,3,0,0,3
951.359,3,0,0,5
951.359,6,3,2,6
951.36,7,5,4,5
951.36,6,4,3,3
951.361,4,4,4,3
951.361,4,4,3,1
951.362,1,2,1,0
951.363,1,2,0,0
951.363,0,1,0,0
951.364,0,0,0,1
951.364,2,1,1,2
951.365,3,2,1,2
951.365,3,2,2,2
951.366,3,3,2,2
951.367,4,5,3,3
951.367,3,4,3,2
951.368,3,4,3,2
951.368,3,4,3,1
951.369,2,4,4,1
951.369,2,6,5,3
951.37,4,5,4,1
951.371,3,5,4,1
951.371,2,5,3,0
951.372,0,2,2,0
951.372,0,3,3,2
951.373,0,2,3,2
951.373,1,2,2,3
951.374,2,1,1,2
951.375,1,0,1,2
951.375,1,0,0,3
951.376,2,0,1,3
951.376,3,0,1,5
951.377,6,1,0,6
951.378,6,0,0,6
951.378,8,3,0,6
951.379,10,8,3,8
951.379,13,11,3,3
951.38,8,6,1,0
951.38,3,3,0,-1
951.381,1,0,-1,-1
951.382,0,-1,-2,-2
951.382,0,0,0,0
951.383,1,2,2,1
951.383,2,2,2,2
951.384,2,2,2,2
951.384,2,1,2,3
951.385,2,2,1,2
951.386,2,1,1,3
951.386,2,1,2,3
951.387,4,3,4,4
951.387,5,4,3,3
951.388,5,5,4,4
951.388,5,6,5,4
951.389,7,8,6,4
951.39,6,11,7,2
951.39,3,7,3,0
951.391,1,3,1,-1
951.391,0,2,0,0
951.392,0,1,0,-1
951.392,0,1,0,0
951.393,1,2,1,0
951.394,1,3,1,0
951.394,0,0,0,1
951.395,2,1,1,3
951.395,4,5,5,4
951.396,4,4,4,4
951.396,1,0,1,3
951.397,1,0,2,4
951.398,3,1,2,5
951.398,4,3,4,5
951.399,3,4,5,5
951.399,2,0,3,5
951.4,4,1,2,6
951.4,6,2,1,4
951.401,6,3,0,3
951.402,4,0,-1,2
951.402,5,0,-3,1
951.403,3,0,-1,3
951.403,4,3,2,3
951.404,3,3,4,3
951.404,2,3,4,4
951.405,3,4,4,4
951.406,3,4,4,2
951.406,1,1,1,0
951.407,0,1,0,0
951.407,2,2,0,2
951.408,4,5,4,4
951.409,6,7,4,4
951.409,6,6,2,0
951.41,4,6,1,0
951.41,3,5,2,0
951.411,3,5,4,0
951.411,2,6,4,1
951.412,2,4,3,0
951.413,0,1,0,-1
951.413,-1,2,2,0
951.414,1,3,3,2
951.414,3,6,5,3
951.415,4,4,3,1
951.415,1,0,0,0
951.416,0,-1,-1,1
951.417,2,-1,-2,3
951.417,4,0,-1,4
951.418,5,0,0,5
951.418,5,2,2,7
951.419,7,6,6,7
951.419,8,6,6,7
951.42,6,4,3,4
951.421,4,2,0,1
951.421,2,0,0,2
951.422,3,1,0,3
951.422,5,2,0,1
951.423,3,2,0,0
951.423,2,0,0,0
951.424,0,1,1,2
951.425,3,2,2,4
951.425,5,4,3,3
951.426,5,5,3,2
951.426,3,4,1,1
951.427,3,4,3,1
951.427,2,2,0,1
951.428,3,2,0,1
951.429,4,5,3,2
951.429,5,8,5,2
951.43,3,9,6,0
951.43,0,4,3,-1
951.431,-3,2,3,-2
951.431,-3,1,3,0
951.432,-2,1,3,1
951.433,0,1,3,4
951.433,5,5,4,6
951.434,10,9,3,4
951.434,7,6,1,0
951.435,1,1,0,1
951.435,1,0,0,1
951.436,1,0,0,2
951.437,1,-1,0,3
951.437,5,1,0,5
951.438,9,4,1,5
951.438,7,2,1,5
951.439,7,4,3,4
951.44,3,2,0,1
951.44,2,2,3,3
951.441,3,3,3,4
951.441,3,2,3,3
951.442,1,-1,0,1
951.442,0,-2,-1,2
951.443,2,0,0,5
951.444,5,3,1,5
951.444,4,1,1,4
951.445,7,3,0,4
951.445,5,4,1,2
951.446,4,5,2,2
951.446,3,4,3,2
951.447,3,3,2,2
951.448,3,3,1,1
951.448,1,2,2,0
951.449,3,5,5,2
951.449,4,9,9,3
951.45,3,9,9,2
951.451,0,4,5,0
951.451,-3,1,2,-2
951.452,-5,0,1,-1
951.452,-4,-1,2,2
951.453,0,0,1,4
951.453,4,1,1,6
951.454,8,4,2,6
951.455,12,8,1,4
951.455,10,6,0,1
951.456,5,2,-2,1
951.456,5,3,0,3
951.457,10,6,-1,0
951.457,7,3,-3,-2
951.458,1,0,-3,-1
951.459,2,2,1,2
951.459,4,4,3,3
951.46,2,2,2,1
951.46,1,0,2,2
951.461,1,2,3,4
951.461,2,2,3,4
951.462,3,1,3,3
951.462,2,2,2,2
951.463,2,1,2,2
951.464,3,2,3,3
951.464,4,4,4,4
951.465,3,2,1,2
951.465,3,2,1,2
951.466,2,1,1,1
951.466,2,2,3,3
951.467,4,3,2,3
951.468,3,2,1,1
951.468,3,3,3,2
951.469,3,4,4,3
951.469,3,5,6,3
951.47,4,8,8,3
951.471,3,8,8,3
951.471,3,8,7,0
951.472,0,3,2,-1
951.472,-3,0,0,0
951.473,0,0,1,0
951.473,1,2,0,0
951.474,2,4,3,2
951.475,3,5,2,2
951.475,3,3,2,1
951.476,2,1,0,1
951.476,2,0,0,1
951.477,1,-3,-3,2
951.477,2,-4,-3,4
951.478,4,-2,-1,8
951.479,9,1,2,9
951.479,9,5,5,9
951.48,10,7,6,8
951.48,8,6,5,7
951.481,7,4,3,3
951.481,4,1,0,0
951.482,1,0,0,0
951.483,1,0,0,1
951.483,2,1,0,2
951.484,3,2,0,1
951.484,2,2,0,0
951.485,1,0,0,0
951.485,2,0,0,1
951.486,4,3,2,2
951.487,3,3,1,1
951.487,3,2,0,0
951.488,3,4,2,1
951.488,5,7,5,3
951.489,5,8,7,4
951.489,6,9,8,3
951.49,3,7,5,0
951.491,0,5,4,0
951.491,-1,4,4,-1
951.492,0,4,3,0
951.492,0,2,3,0
951.493,-1,0,1,1
951.494,0,0,2,2
951.494,2,2,2,4
951.495,6,4,3,4
951.495,7,3,1,3
951.496,6,0,-1,2
951.497,4,0,0,2
951.497,4,0,-1,3
951.498,5,1,-1,2
951.498,5,2,0,3
951.499,7,5,3,3
951.499,6,7,4,2
951.5,1,1,2,0
951.5,-1,0,2,2
951.501,0,0,3,4
951.502,3,1,2,4
951.502,4,3,4,5
951.503,4,4,4,4
951.503,4,5,3,3
951.504,5,3,1,1
951.504,3,4,1,1
951.505,2,2,1,1
951.506,1,1,0,0
951.506,2,2,2,0
951.507,0,2,1,1
951.507,1,1,0,1
951.508,2,2,1,4
951.508,5,4,2,5
951.509,9,7,2,2
951.51,6,7,4,3
951.51,4,5,5,2
951.511,2,3,3,2
951.511,2,5,4,2
951.512,2,5,5,2
951.512,2,6,5,1
951.513,2,5,2,0
951.514,2,3,0,0
951.514,1,2,0,-2
951.515,-1,-3,-2,0
951.515,-1,-4,-3,1
951.516,3,0,0,5
951.517,5,-3,-4,5
951.517,3,-6,-4,6
951.518,5,-1,2,10
951.518,8,5,8,11
951.519,8,9,12,14
951.52,13,12,11,10
951.52,11,10,5,5
951.521,9,8,0,0
951.521,7,6,-3,-5
951.522,4,6,-4,-6
951.522,1,3,-3,-7
951.523,-2,0,-2,-4
951.523,0,1,0,-2
951.524,1,2,-1,-4
951.525,0,3,-1,-5
951.525,-3,0,0,-1
951.526,-2,0,2,2
951.526,1,3,6,5
951.527,4,5,6,6
951.527,5,5,8,9
951.528,8,9,11,10
951.529,7,8,9,8
951.529,5,4,5,4
951.53,1,0,0,3
951.53,2,0,0,3
951.531,3,1,1,5
951.531,7,4,2,6
951.532,8,4,0,2
951.533,2,-1,-6,-6
951.533,-3,-4,-8,-7
951.534,-3,0,-1,-2
951.534,0,3,4,3
951.535,4,3,3,5
951.536,5,3,2,4
951.536,5,3,1,2
951.537,6,6,3,2
951.537,5,4,2,1
951.538,1,1,1,1
951.538,1,4,6,7
951.539,6,8,10,10
951.539,10,12,11,7
951.54,7,11,10,2
951.541,-1,2,4,1
951.541,-2,-3,0,4
951.542,2,-8,-9,1
951.542,7,0,-7,-1
951.543,4,2,-1,-1
951.544,2,1,1,3
951.544,3,1,1,3
951.545,3,0,0,0
951.545,0,0,2,2
951.546,0,2,5,1
951.546,-1,4,8,4
951.547,1,8,13,8
951.547,8,16,16,5
951.548,6,17,15,0
951.549,-3,3,3,-5
951.549,-12,-15,-13,-8
951.55,-10,-22,-21,-6
951.55,1,-2,-3,0
951.551,4,6,6,5
951.552,6,10,10,10
951.552,12,15,15,15
951.553,17,18,15,13
951.553,14,9,2,2
951.554,4,-1,-7,-4
951.554,0,-2,-4,1
951.555,7,1,-2,4
951.556,11,2,-7,0
951.556,6,-3,-13,-4
951.557,3,-8,-17,-3
951.557,6,-4,-13,-2
951.558,9,5,-4,-2
951.558,6,12,9,0
951.559,4,16,15,2
951.56,1,15,15,1
951.56,-1,12,15,3
951.561,0,8,9,5
951.561,2,1,2,2
951.562,3,0,0,2
951.562,0,-3,-3,0
951.563,0,-1,1,5
951.564,3,0,3,6
951.564,3,-1,0,1
951.565,-4,-5,3,4
951.565,-4,-6,6,11
951.566,3,2,13,14
951.566,7,12,19,13
951.567,4,11,15,7
951.568,3,5,3,-1
951.568,-3,-4,-9,-11
951.569,-5,-5,-11,-10
951.57,-2,-1,-4,-4
951.57,-1,0,-3,-2
951.57,3,5,0,-3
951.571,2,8,3,-1
951.572,8,17,10,2
951.572,14,25,15,5
951.573,12,19,10,7
951.573,13,11,1,3
951.574,11,2,-6,1
951.575,9,0,-12,-4
951.575,0,-13,-20,-6
951.576,-1,-18,-20,1
951.576,6,-14,-13,10
951.577,11,-10,-3,22
951.577,22,5,11,26
951.578,22,11,13,17
951.578,14,16,19,13
951.579,9,20,23,8
951.58,0,9,9,-6
951.58,-16,-1,5,-10
951.581,-21,0,15,-4
951.581,-23,-4,19,4
951.582,-19,-11,5,-1
951.583,-18,-15,-5,-11
951.583,-21,-19,-12,-13
951.584,-15,-14,-10,-7
951.584,-4,-3,0,7
951.585,15,17,15,19
951.585,28,30,25,25
951.586,30,28,18,17
951.587,23,18,4,4
951.587,14,11,-4,-5
951.588,1,-7,-19,-10
951.588,-4,-21,-26,-7
951.589,3,-10,-21,-7
951.589,9,3,-7,-3
951.59,9,15,11,6
951.591,8,17,19,8
951.591,5,15,14,2
951.592,5,15,7,-5
951.592,1,10,-2,-19
951.593,-9,7,-3,-23
951.594,-15,4,4,-5
951.594,-4,6,10,10
951.595,8,8,13,18
951.595,14,5,2,9
951.596,8,-3,-4,5
951.596,5,-6,-4,11
951.597,10,-7,-9,7
951.597,8,-7,-7,5
951.598,8,3,6,9
951.599,8,9,12,4
951.599,3,16,24,12
951.6,5,21,31,15
951.6,-5,0,14,5
951.601,-20,-30,-14,-7
951.601,-27,-42,-23,-6
951.602,-19,-29,-11,4
951.603,-1,-5,2,8
951.603,3,-3,-2,5
951.604,8,5,1,6
951.604,17,20,14,13
951.605,22,23,14,10
951.605,18,17,4,0
951.606,9,7,-5,-1
951.607,9,0,-15,-2
951.607,15,1,-19,-8
951.608,16,15,-1,-1
951.608,14,28,22,6
951.609,4,22,25,3
951.609,-1,20,28,7
951.61,0,21,28,7
951.611,-7,5,14,0
951.611,-14,-7,4,-2
951.612,-14,-10,0,2
951.612,-8,-18,-11,-2
951.613,-8,-25,-28,-15
951.614,-13,-32,-42,-24
951.614,-12,-28,-37,-11
951.615,7,-8,-17,6
951.615,29,23,12,20
951.616,36,42,34,23
951.616,24,36,34,17
951.617,8,17,22,9
951.618,3,10,11,4
951.618,4,6,0,-4
951.619,0,-1,-9,-7
951.619,0,-7,-12,-5
951.62,-4,-13,-12,-4
951.62,-7,-16,-8,5
951.621,1,-5,5,12
951.622,7,10,23,20
951.622,10,16,26,19
951.623,7,14,26,18
951.623,2,3,13,10
951.624,-1,-1,4,0
951.625,-6,-7,-9,-11
951.625,-12,-17,-26,-24
951.626,-14,-16,-25,-21
951.626,-7,-7,-17,-12
951.627,3,4,-5,-2
951.627,6,6,4,7
951.628,10,11,15,16
951.628,16,17,17,17
951.629,20,24,22,19
951.63,18,20,18,14
951.63,10,7,0,-7
951.631,-5,2,0,-7
951.631,-4,0,-2,-2
951.632,2,0,-10,-9
951.633,3,5,-6,-4
951.633,11,12,-4,-2
951.634,17,16,-4,-5
951.634,15,15,-2,-2
951.635,15,16,2,1
951.635,9,12,11,9
951.636,4,1,6,9
951.637,0,-3,7,12
951.637,0,-6,6,10
951.638,-4,-10,0,-1
951.638,-14,-16,-5,-3
951.639,-10,-11,-1,6
951.639,3,-2,0,7
951.64,4,-2,-4,0
951.641,-2,-9,-10,-3
951.641,-2,-14,-21,-7
951.642,7,0,-13,-7
951.642,15,29,20,8
951.643,16,31,32,23
951.643,18,18,23,26
951.644,18,8,14,21
951.645,10,-4,0,6
951.645,-2,-14,-14,-8
951.646,-6,-7,-12,-12
951.646,-4,0,-5,-8
951.647,-2,0,-6,-4
951.648,5,6,-2,-2
951.648,7,15,12,0
951.649,-5,1,11,2
951.649,-14,-12,5,7
951.65,-7,-8,4,6
951.65,0,1,7,7
951.651,3,1,1,5
951.652,11,4,-8,-3
951.652,14,11,-4,1
951.653,19,17,9,12
951.653,17,9,1,5
951.654,8,3,4,10
951.654,8,-2,-4,4
951.655,2,-6,-6,1
951.656,0,-8,-5,1
951.656,0,-4,0,6
951.657,1,-6,0,10
951.657,7,-4,-4,8
951.658,6,-11,-13,6
951.658,14,0,-4,11
951.659,20,11,6,16
951.66,17,4,0,15
951.66,17,0,-6,7
951.661,16,4,-3,8
951.661,13,2,-6,0
951.662,4,-2,-7,-5
951.662,-1,-2,-7,-7
951.663,-2,1,-2,-6
951.664,0,15,21,11
951.664,2,9,15,8
951.665,-1,1,7,3
951.665,-3,2,9,3
951.666,-1,3,4,-6
951.666,-7,4,1,-9
951.667,-8,1,3,0
951.668,-1,0,0,1
951.668,5,6,2,0
951.669,6,9,2,0
951.669,8,18,15,11
951.67,14,21,20,11
951.67,5,11,14,2
951.671,-6,-3,0,-3
951.672,-12,-18,-18,-15
951.672,-13,-20,-22,-13
951.673,-6,-13,-12,3
951.673,16,12,6,7
951.674,16,23,21,14
951.674,11,16,22,16
951.675,9,12,13,0
951.676,-9,-4,-1,-13
951.676,-13,1,8,-1
951.677,-2,10,18,11
951.677,7,12,13,4
951.678,0,2,2,-5
951.678,-9,-8,-12,-14
951.679,-10,-7,-14,-14
951.68,-3,1,-6,-8
951.68,7,18,10,5
951.681,12,17,17,17
951.681,15,11,13,14
951.682,9,4,3,1
951.682,-3,-11,-12,-8
951.683,-3,-1,0,2
951.684,7,11,14,11
951.684,7,7,11,8
951.685,0,0,3,2
951.685,-2,-2,-2,-4
951.686,-4,-2,-1,-1
951.687,0,0,-1,0
951.687,5,1,-4,0
951.688,7,2,-3,1
951.688,9,2,-6,0
951.689,12,9,0,5
951.689,18,15,2,2
951.69,13,17,5,0
951.691,7,15,6,-3
951.691,4,16,11,0
951.692,4,16,17,4
951.692,-1,6,12,3
951.693,-8,-3,7,3
951.693,-6,-9,-7,-9
951.694,-13,-16,-19,-18
951.695,-16,-16,-12,-5
951.695,-6,-12,-4,10
951.696,9,-2,1,16
951.696,15,5,7,16
951.697,15,6,6,13
951.697,11,2,1,9
951.698,8,0,0,9
951.699,10,3,4,14
951.699,16,8,9,17
951.7,19,9,6,14
951.7,15,6,4,10
951.701,8,-4,-10,-3
951.701,0,-8,-15,-9
951.702,0,-6,-11,-2
951.703,6,0,-2,7
951.703,11,2,-2,7
951.704,12,4,0,5
951.704,9,2,-1,0
951.705,1,-4,-9,-7
951.705,-4,-3,-4,-5
951.706,-5,-3,-1,-1
951.707,-1,2,10,7
951.707,1,2,8,10
951.708,8,6,7,9
951.708,12,17,15,8
951.709,11,22,21,5
951.709,3,14,9,-8
951.71,-8,3,-1,-14
951.711,-6,11,8,-5
951.711,-2,12,13,1
951.712,-2,8,11,0
951.712,-9,-2,6,-1
951.713,-10,-7,0,-2
951.714,-8,-5,3,6
951.714,1,-1,6,12
951.715,7,1,5,9
951.715,4,0,2,5
951.716,1,-4,-2,2
951.716,2,-1,-2,3
951.717,5,0,0,5
951.718,4,-2,-1,6
951.718,3,-6,-5,2
951.719,5,0,0,2
951.719,8,10,4,-2
951.72,2,9,0,-13
951.72,-6,5,-2,-10
951.721,-1,8,3,0
951.722,11,20,13,9
951.722,14,15,10,10
951.723,11,6,1,4
951.723,7,7,6,6
951.724,7,9,11,9
951.724,4,7,9,5
951.725,0,2,7,5
951.726,-1,-4,0,0
951.726,-6,-11,-11,-9
951.727,-10,-10,-8,-5
951.727,-2,-1,-2,0
951.728,3,4,1,0
951.729,6,8,4,1
951.729,7,10,5,0
951.73,7,11,5,0
951.73,8,15,7,0
951.731,8,17,11,1
951.731,5,12,7,-2
951.732,0,5,1,-5
951.732,-3,0,0,-4
951.733,-2,0,0,0
951.734,1,0,-1,0
951.734,0,0,-1,0
951.735,0,-5,-3,1
951.735,0,-6,-3,6
951.736,5,-3,0,12
951.736,10,-1,-1,12
951.737,10,-5,-5,10
951.738,9,-5,-4,10
951.738,12,2,2,14
951.739,17,9,8,15
951.739,17,8,4,10
951.74,11,0,-3,5
951.74,5,-6,-7,2
951.741,4,-5,-7,1
951.742,3,-2,-3,1
951.742,2,1,0,3
951.743,5,4,5,6
951.743,7,6,5,6
951.744,5,3,2,2
951.745,0,-1,-3,-2
951.745,-2,-3,-3,-1
951.746,0,0,1,4
951.746,5,3,2,5
951.747,6,3,1,3
951.747,4,2,1,2
951.748,4,4,4,5
951.749,6,7,6,6
951.749,9,12,10,5
951.75,6,12,10,2
951.75,2,8,6,-4
951.751,-5,5,4,-6
951.751,-5,4,4,-4
951.752,-3,5,6,-3
951.753,-2,5,4,-3
951.753,-3,2,1,-3
951.754,-3,0,0,-2
951.754,-1,1,0,0
951.755,0,0,1,3
951.755,3,-1,-2,3
951.756,2,-7,-8,1
951.757,2,-6,-5,5
951.757,9,3,3,12
951.758,15,11,11,16
951.758,16,11,12,15
951.759,15,9,7,6
951.759,7,4,2,1
951.76,1,0,-4,-3
951.761,-1,-1,-3,-4
951.761,-1,0,-3,-4
951.762,0,0,-3,-3
951.762,1,2,0,0
951.763,6,7,6,5
951.764,7,10,7,2
951.764,5,12,14,9
951.765,6,10,9,2
951.765,-1,2,1,-3
951.766,-6,-3,0,0
951.766,-1,0,2,3
951.767,3,4,5,4
951.768,0,0,0,-3
951.768,-4,0,3,-2
951.769,-2,4,8,3
951.769,2,10,12,3
951.77,3,13,12,1
951.77,0,10,9,-1
951.771,-1,10,9,-4
951.772,-4,5,3,-7
951.772,-7,0,-1,-7
951.773,-5,-1,-3,-4
951.773,0,2,0,0
951.774,5,6,3,2
951.774,6,5,1,1
951.775,4,2,0,2
951.776,3,-1,-1,5
951.776,6,0,1,9
951.777,10,2,3,13
951.777,10,1,2,12
951.778,7,-3,-2,9
951.778,7,-3,-2,8
951.779,9,2,2,9
951.78,10,4,3,7
951.78,7,1,2,7
951.781,5,0,1,6
951.781,4,0,0,5
951.782,2,-1,0,2
951.782,2,0,-1,0
951.783,1,0,-1,0
951.784,1,1,0,1
951.784,4,3,0,1
951.785,3,1,-2,1
951.785,4,1,-3,0
951.786,3,0,-4,0
951.786,4,2,-1,2
951.787,7,4,-1,2
951.788,8,7,3,5
951.788,9,12,11,9
951.789,9,13,15,9
951.789,6,11,13,6
951.79,1,6,9,1
951.79,-1,6,7,-1
951.791,-4,3,3,-5
951.792,-6,1,0,-7
951.792,-8,0,0,-7
951.793,-7,0,0,-6
951.793,-5,0,0,-3
951.794,0,3,0,0
951.794,4,2,-4,-2
951.795,4,1,-7,-3
951.796,4,2,-4,0
951.796,7,4,1,8
951.797,12,7,6,13
951.797,14,6,7,16
951.798,14,4,8,17
951.799,12,3,5,12
951.799,9,2,5,10
951.8,5,0,1,6
951.8,2,0,0,2
951.801,1,0,-1,0
951.801,0,-2,-4,-4
951.802,-2,-2,-2,0
951.803,1,0,1,2
951.803,3,2,1,4
951.804,4,4,2,2
951.804,4,5,3,2
951.805,2,2,0,-2
951.805,0,3,3,0
951.806,0,6,6,1
951.807,1,6,6,1
951.807,0,4,6,0
951.808,-1,3,4,-1
951.808,-2,6,8,0
951.809,0,7,9,0
951.809,1,10,8,0
951.81,1,12,9,-2
951.811,0,14,11,-2
951.811,0,13,13,-1
951.812,-4,6,6,-4
951.812,-7,1,5,-1
951.813,-5,0,3,0
951.813,-1,-1,-1,0
951.814,1,0,-2,0
951.815,2,0,0,5
951.815,5,-2,-3,5
951.816,5,-4,-6,5
951.816,7,-3,-6,7
951.817,13,0,-6,7
951.817,16,4,-3,11
951.818,22,10,1,14
951.819,25,16,6,11
951.819,17,10,2,3
951.82,5,0,-5,-4
951.82,-2,-5,-8,-5
951.821,-2,-2,-2,-1
951.822,1,2,5,6
951.822,3,1,3,3
951.823,-1,-4,-2,-1
951.823,-5,-6,-2,1
951.824,1,0,0,4
951.824,8,6,3,4
951.825,7,7,5,4
951.825,1,4,7,4
951.826,0,4,8,3
951.827,-4,0,6,0
951.827,-8,-2,5,1
951.828,-4,1,10,7
951.828,2,7,12,9
951.829,8,12,11,7
951.83,10,16,10,3
951.83,7,13,6,-2
951.831,4,12,5,-6
951.831,-2,6,2,-4
951.832,0,6,-1,-5
951.832,1,3,-4,-7
951.833,-2,-2,-5,-6
951.834,-6,-7,-6,-3
951.834,-4,-7,-3,1
951.835,-1,-4,2,8
951.835,3,-1,4,10
951.836,6,0,4,13
951.836,12,3,4,13
951.837,15,7,3,10
951.838,13,5,1,6
951.838,9,3,1,6
951.839,11,9,3,5
951.839,9,7,1,0
951.84,5,5,0,-3
951.84,0,2,0,-9
951.841,-13,-6,-1,-7
951.842,-14,-7,3,1
951.842,-6,-1,8,5
951.843,0,2,8,8
951.843,6,8,10,9
951.844,11,11,7,5
951.844,10,10,2,0
951.845,6,7,-2,-1
951.846,11,9,-6,-4
951.846,11,9,-9,-8
951.847,7,4,-10,-2
951.847,18,14,-2,-2
951.848,9,11,1,-8
951.849,-14,-8,0,-4
951.849,-10,-2,6,5
951.85,2,10,15,6
951.85,3,13,15,2
951.851,-2,10,15,0
951.851,-9,6,15,0
951.852,-8,5,12,0
951.853,-5,5,8,-4
951.853,-6,7,9,-3
951.854,-8,3,8,4
951.854,2,3,3,3
951.855,0,-5,-5,-5
951.855,-13,-19,-11,0
951.856,-1,-11,-7,15
951.857,31,13,-1,15
951.857,35,20,0,10
951.858,24,10,-3,2
951.858,6,-4,-9,0
951.859,1,-6,-4,4
951.859,4,-1,-2,7
951.86,15,9,1,5
951.861,14,11,2,4
951.861,10,8,0,-5
951.862,-6,-4,-4,-11
951.862,-19,-14,-3,-5
951.863,-11,-5,5,5
951.863,1,9,14,12
951.864,12,17,16,12
951.865,14,13,7,4
951.865,7,7,2,-1
951.866,-4,-2,0,-2
951.866,-9,-7,1,1
951.867,-8,-7,4,3
951.867,-9,-9,5,10
951.868,0,0,10,15
951.869,10,7,11,13
951.869,11,6,7,14
951.87,18,12,5,14
951.87,29,21,0,0
951.871,15,12,-7,-5
951.871,14,11,-8,-8
951.872,10,13,-4,-16
951.873,-12,-5,-5,-13
951.873,-17,-11,-4,-7
951.874,-15,-13,-4,-7
951.874,-17,-13,0,0
951.875,-16,-14,5,12
951.875,0,-3,10,19
951.876,10,1,9,14
951.877,5,-4,4,19
951.877,16,4,4,18
951.878,21,12,7,10
951.878,10,8,8,7
951.879,4,7,9,4
951.88,2,6,8,4
951.88,3,4,3,2
951.881,6,5,2,2
951.881,9,9,1,1
951.882,9,8,-2,-3
951.882,5,4,-6,-8
951.883,0,0,-8,-9
951.884,-5,-3,-4,-3
951.884,-4,-5,0,5
951.885,4,-4,-3,5
951.885,4,-6,-6,1
951.886,0,-4,0,6
951.886,4,2,6,11
951.887,11,10,9,9
951.888,9,9,9,6
951.888,3,4,4,1
951.889,2,7,6,-1
951.889,3,18,14,-1
951.89,0,14,11,-3
951.89,0,16,10,-4
951.891,4,16,4,-10
951.892,-2,8,-1,-21
951.892,-23,-10,-6,-17
951.893,-22,-10,1,-5
951.893,-15,-5,10,4
951.894,-12,-6,14,16
951.894,-1,-3,13,27
951.895,20,4,6,31
951.896,45,21,-2,16
951.896,46,30,-4,5
951.897,34,22,-10,-8
951.897,14,7,-18,-16
951.898,2,-2,-22,-18
951.898,0,-1,-18,-18
951.899,-8,-6,-12,-9
951.9,0,1,-1,1
951.9,6,7,4,1
951.901,3,5,5,-3
951.901,-13,-5,8,-5
951.902,-27,-15,10,1
951.902,-24,-12,18,17
951.903,-4,2,26,26
951.904,9,8,21,29
951.904,27,19,15,24
951.905,33,25,8,15
951.905,35,26,0,0
951.906,15,9,-11,-17
951.906,-12,-15,-23,-26
951.907,-26,-26,-22,-17
951.908,-15,-13,-8,-5
951.908,-2,0,4,5
951.909,1,3,8,8
951.909,3,6,14,10
951.91,3,6,15,10
951.91,1,5,14,9
951.911,2,9,16,10
951.912,3,9,14,8
951.912,0,5,9,7
951.913,4,4,4,6
951.913,8,4,0,-2
951.914,-1,-2,-1,-2
951.915,-7,-4,1,0
951.915,-8,-5,4,4
951.916,-4,-8,-1,3
951.916,-2,-9,-5,5
951.917,5,-4,-5,6
951.917,10,2,1,10
951.918,12,4,1,9
951.919,14,6,0,5
951.919,11,4,-2,1
951.92,9,2,-5,3
951.92,18,12,-1,5
951.921,22,18,0,0
951.921,12,9,-4,-7
951.922,0,1,-3,-6
951.923,-4,-1,-1,-3
951.923,-3,-1,1,0
951.924,-3,0,5,4
951.924,2,6,8,9
951.925,14,14,6,9
951.925,25,19,-1,0
951.926,18,15,-7,-13
951.927,-5,-2,-8,-13
951.927,-13,-6,-2,-7
951.928,-8,-2,3,0
951.928,-5,-5,0,3
951.929,0,-4,0,8
951.93,10,7,9,12
951.93,14,16,14,10
951.931,10,12,10,5
951.931,1,0,0,1
951.932,0,-5,-3,2
951.932,2,-3,-1,3
951.933,0,-1,1,2
951.934,-3,-2,3,1
951.934,-7,-5,4,7
951.935,-2,-5,3,10
951.935,4,-3,2,11
951.936,8,0,3,11
951.936,9,3,6,12
951.937,10,5,6,10
951.938,8,1,1,6
951.938,4,-2,-2,3
951.939,4,-1,0,4
951.939,5,2,1,4
951.94,4,2,0,3
951.94,6,5,1,3
951.941,9,9,1,0
951.941,5,6,-1,-5
951.942,-2,1,-2,-5
951.943,-1,3,1,0
951.943,5,8,3,0
951.944,2,2,0,1
951.944,2,2,1,2
951.945,4,4,1,0
951.945,0,0,0,-2
951.946,-3,-2,2,4
951.947,5,6,6,10
951.947,19,19,9,3
951.948,8,11,6,-5
951.948,-14,-12,-3,-6
951.949,-19,-18,-2,1
951.95,-8,-7,6,12
951.95,10,11,14,15
951.951,18,19,12,9
951.951,13,16,10,3
951.952,5,9,5,1
951.952,3,2,-3,-3
951.953,1,2,-6,-10
951.954,-5,-2,-4,-2
951.954,4,6,0,5
951.955,17,13,1,0
951.955,9,7,-4,-6
951.956,-3,-6,-12,-5
951.956,5,1,-7,-6
951.957,-1,-1,0,0
951.958,-4,-3,4,7
951.958,0,-2,3,7
951.959,1,0,4,9
951.959,6,4,8,16
951.96,20,13,9,15
951.96,22,15,5,2
951.961,1,-1,-4,-6
951.962,-5,-2,-1,-1
951.962,7,12,5,-1
951.963,6,17,10,-2
951.963,-2,7,6,-2
951.964,-6,-4,-3,-8
951.964,-12,-9,-5,-8
951.965,-11,-8,-2,0
951.966,-2,-2,2,5
951.966,2,-1,4,10
951.967,8,1,4,12
951.967,13,9,8,11
951.968,12,9,9,9
951.968,9,10,10,9
951.969,10,12,11,7
951.97,6,8,6,3
951.97,1,2,1,-2
951.971,-3,-1,-2,-6
951.971,-7,-5,-3,-3
951.972,-4,-3,0,5
951.973,7,4,2,6
951.973,11,7,2,4
951.974,6,0,-5,0
951.974,8,3,-2,1
951.975,7,4,0,2
951.976,5,3,0,1
951.976,3,1,0,1
951.977,1,0,-1,0
951.977,0,0,0,0
951.978,0,0,2,2
951.978,1,2,5,5
951.979,2,0,3,6
951.979,3,-1,1,6
951.98,5,0,0,7
951.981,7,0,1,8
951.981,10,5,5,9
951.982,12,10,6,7
951.982,9,6,2,3
951.983,5,3,0,0
951.983,3,1,-2,-2
951.984,1,0,-1,-1
951.985,0,0,-1,0
951.985,0,-1,0,0
951.986,-1,-2,0,1
951.986,-1,-1,3,3
951.987,-1,0,5,4
951.987,1,4,10,7
951.988,3,7,11,8
951.989,5,9,9,2
951.989,-3,3,9,7
951.99,6,10,10,10
951.99,16,16,7,1
951.991,8,11,2,-4
951.991,0,4,-1,-5
951.992,0,1,-4,-2
951.993,6,2,-9,-7
951.993,3,2,-7,-2
951.994,11,10,-2,-4
951.994,5,7,-1,-7
951.995,-5,-2,-4,-6
951.995,-7,-5,-2,-1
951.996,-2,-3,0,2
951.997,1,0,4,7
951.997,5,3,6,10
951.998,8,5,7,11
951.998,10,10,10,9
951.999,7,5,7,6
952,6,7,7,6
952,6,7,5,4
952.001,3,1,0,1
952.001,0,-4,-4,0
952.002,0,-6,-6,0
952.002,0,-8,-7,2
952.003,4,-5,-5,5
952.004,10,5,4,7
952.004,9,8,7,6
952.005,5,5,7,5
952.005,3,3,4,4
952.006,4,3,3,2
952.006,1,2,3,1
952.007,-1,0,1,1
952.008,-2,0,4,6
952.008,10,11,7,11
952.009,23,23,8,2
952.009,10,14,3,-7
952.01,-6,-1,-1,-7
952.01,-9,-3,0,-5
952.011,-8,-3,0,-3
952.012,-6,-1,2,-1
952.012,-2,1,4,3
952.013,0,4,6,5
952.013,3,4,5,6
952.014,6,4,2,3
952.014,4,4,2,1
952.015,1,1,1,4
952.016,3,0,2,5
952.016,5,0,0,3
952.017,2,-3,-2,3
952.017,1,-3,-1,4
952.018,2,0,4,9
952.018,5,3,10,13
952.019,9,4,7,11
952.02,9,3,2,7
952.02,7,2,1,8
952.021,14,8,1,8
952.021,20,13,0,2
952.022,13,8,-5,-3
952.023,7,3,-9,-8
952.023,0,0,-8,-10
952.024,-4,-2,-5,-7
952.024,-4,-3,-1,0
952.025,0,-1,0,4
952.025,3,1,2,1
952.026,0,1,4,4
952.027,0,1,7,7
952.027,3,4,9,8
952.028,6,8,10,5
952.028,3,7,7,3
952.029,2,5,5,0
952.029,0,2,2,-2
952.03,-2,2,3,0
952.031,1,8,7,1
952.031,1,6,5,2
952.032,2,6,5,4
952.032,3,4,4,4
952.033,1,0,2,4
952.033,5,3,2,4
952.034,5,4,0,1
952.035,5,3,0,2
952.035,7,5,-2,-4
952.036,-3,-3,-4,-3
952.036,-4,-3,-1,0
952.037,0,-1,1,6
952.037,4,-3,-3,8
952.038,11,0,-3,9
952.039,15,6,1,9
952.039,14,7,3,7
952.04,9,4,2,5
952.04,6,3,1,3
952.041,4,3,2,4
952.041,3,1,1,5
952.042,8,4,0,0
952.043,3,1,-1,-2
952.043,0,1,1,-1
952.044,0,2,3,0
952.044,0,2,2,0
952.045,0,3,3,0
952.045,0,2,4,3
952.046,1,2,3,3
952.047,3,3,3,4
952.047,8,8,3,2
952.048,6,6,1,0
952.048,3,6,3,0
952.049,4,11,7,2
952.049,4,13,9,0
952.05,1,8,6,-3
952.051,-2,2,0,-5
952.051,-7,-5,-4,-5
952.052,-5,-4,-1,0
952.052,-1,-2,-1,1
952.053,0,-3,0,3
952.054,3,2,5,8
952.054,7,7,8,10
952.055,9,7,8,9
952.055,8,5,5,5
952.056,5,0,1,4
952.056,2,0,0,2
952.057,2,1,1,5
952.058,3,0,0,7
952.058,8,1,-2,5
952.059,11,4,-1,2
952.059,6,3,0,3
952.06,5,2,1,3
952.06,4,2,2,3
952.061,3,0,0,0
952.062,0,0,0,1
952.062,0,0,2,3
952.063,3,4,5,5
952.063,4,4,2,1
952.064,1,0,1,1
952.064,0,1,2,2
952.065,1,2,3,4
952.066,4,4,4,6
952.066,11,10,4,3
952.067,8,9,3,0
952.067,3,6,2,-1
952.068,2,8,4,0
952.068,1,8,4,-1
952.069,3,8,2,-5
952.07,-2,3,1,-6
952.07,-3,2,2,-2
952.071,-2,0,1,-1
952.071,-3,-2,0,0
952.072,-2,-3,0,3
952.073,1,0,2,6
952.073,7,7,7,8
952.074,9,8,8,5
952.074,1,0,1,3
952.075,1,-3,0,6
952.075,8,3,2,9
952.076,13,8,2,4
952.077,6,2,0,2
952.077,2,-1,0,2
952.078,0,-4,0,8
952.078,15,10,4,10
952.079,21,16,3,3
952.079,12,9,-2,-2
952.08,2,0,-3,-1
952.081,2,0,-4,-3
952.081,0,-1,-5,-7
952.082,-7,-6,-5,-4
952.082,-5,-3,1,2
952.083,1,2,5,6
952.083,2,3,6,3
952.084,-1,1,4,4
952.084,0,1,4,6
952.085,6,7,9,10
952.086,11,11,11,9
952.086,9,7,5,3
952.087,2,2,1,-1
952.087,-2,0,1,0
952.088,0,5,5,2
952.089,2,5,6,1
952.089,0,3,4,0
952.09,-1,1,2,0
952.09,0,5,6,4
952.091,7,10,7,4
952.091,6,9,4,0
952.092,0,2,0,-2
952.093,-2,-1,0,-2
952.093,-2,0,0,-1
952.094,-2,0,1,1
952.094,-2,-1,3,3
952.095,0,-1,3,7
952.095,4,1,3,12
952.096,17,8,1,9
952.097,19,11,-1,0
952.097,5,0,-5,1
952.098,5,-2,-5,2
952.098,5,1,-1,0
952.099,2,0,-1,4
952.099,7,5,2,6
952.1,11,5,0,6
952.101,13,6,-2,1
952.101,7,3,-2,-2
952.102,0,1,0,-1
952.102,0,4,3,0
952.103,2,8,7,2
952.104,4,10,9,3
952.104,1,6,6,0
952.105,-3,-1,0,-2
952.105,-4,-3,-1,-1
952.106,-2,0,1,0
952.106,-3,-1,3,4
952.107,1,2,5,5
952.107,3,4,6,4
952.108,3,4,5,4
952.109,5,7,7,5
952.109,7,11,9,5
952.11,5,9,8,2
952.11,0,5,4,-1
952.111,-4,0,2,-1
952.112,-3,0,2,0
952.112,-1,0,2,2
952.113,1,0,1,1
952.113,0,0,1,2
952.114,0,-1,1,4
952.114,3,-1,1,10
952.115,16,9,2,11
952.116,19,13,1,2
952.116,6,1,-3,-2
952.117,-1,-4,-3,1
952.117,3,-1,-3,4
952.118,9,3,-1,1
952.118,6,3,0,3
952.119,6,5,3,4
952.12,7,7,5,3
952.12,5,7,4,0
952.121,0,4,2,-1
952.121,-3,-3,-1,0
952.122,0,0,1,2
952.122,3,2,2,2
952.123,2,1,0,2
952.124,2,0,-1,1
952.124,4,1,0,4
952.125,5,0,0,5
952.125,6,0,-1,3
952.126,4,0,-1,2
952.126,3,2,2,2
952.127,3,5,8,6
952.128,5,8,11,8
952.128,6,8,9,5
952.129,2,6,6,2
952.129,0,5,6,0
952.13,0,6,6,2
952.13,5,9,7,2
952.131,4,6,2,0
952.132,4,5,-2,-4
952.132,3,3,-5,-6
952.133,2,2,-3,-5
952.133,-1,0,-2,-4
952.134,-3,-2,-3,-2
952.135,-3,-6,-4,0
952.135,1,-1,0,3
952.136,4,3,5,8
952.136,7,4,7,11
952.137,9,4,4,9
952.137,7,1,2,6
952.138,3,0,2,6
952.138,4,3,6,9
952.139,8,6,7,9
952.14,9,5,4,6
952.14,7,5,1,2
952.141,3,1,-1,-1
952.141,0,1,0,-1
952.142,0,1,1,0
952.143,0,2,1,1
952.143,0,1,0,0
952.144,0,1,2,0
952.144,-1,1,2,1
952.145,0,1,3,2
952.145,0,1,3,3
952.146,2,1,3,3
952.147,3,4,5,4
952.147,2,2,2,3
952.148,4,3,2,3
952.148,6,7,6,6
952.149,12,13,7,4
952.149,8,10,5,1
952.15,4,8,3,0
952.151,2,7,3,-3
952.151,0,4,1,-4
952.152,-3,0,-1,-5
952.152,-3,0,-1,-3
952.153,-1,2,1,0
952.153,0,2,0,0
952.154,1,1,1,2
952.155,3,2,1,3
952.155,3,1,1,3
952.156,5,1,0,4
952.156,6,2,0,5
952.157,7,1,0,5
952.157,7,2,0,5
952.158,7,2,0,6
952.159,8,4,2,5
952.159,7,4,3,4
952.16,4,2,2,4
952.16,4,2,3,4
952.161,4,3,2,4
952.161,3,2,2,3
952.162,2,0,0,1
952.163,2,1,0,0
952.163,2,1,1,1
952.164,1,1,1,0
952.164,0,0,0,0
952.165,0,0,0,0
952.165,-2,0,2,1
952.166,0,0,5,6
952.167,2,3,7,9
952.167,5,7,10,10
952.168,6,6,8,10
952.168,11,9,5,7
952.169,16,14,4,7
952.17,23,21,2,-2
952.17,12,14,-4,-13
952.171,-6,0,-7,-16
952.171,-13,-6,-7,-12
952.172,-11,-5,-3,-7
952.172,-7,-3,-1,-2
952.173,-2,1,3,2
952.174,3,6,5,6
952.174,9,8,6,7
952.175,8,6,2,3
952.175,3,1,0,2
952.176,2,0,0,3
952.176,2,0,3,5
952.177,2,0,4,7
952.178,3,-1,3,6
952.178,0,-3,3,10
952.179,7,2,5,11
952.179,9,5,6,7
952.18,4,3,5,7
952.18,4,1,4,5
952.181,3,0,1,3
952.182,1,0,1,3
952.182,1,0,1,2
952.183,0,0,3,5
952.183,5,4,3,8
952.184,14,12,3,2
952.185,9,8,0,-2
952.185,2,2,-2,-3
952.186,0,0,-3,-4
952.186,-1,0,-2,-3
952.187,-2,-1,-2,-2
952.187,0,1,1,0
952.188,3,4,4,4
952.188,6,7,6,5
952.189,6,8,6,3
952.19,4,6,5,2
952.19,2,7,6,2
952.191,3,6,5,3
952.191,4,7,5,1
952.192,3,5,3,-1
952.193,0,3,1,-3
952.193,-1,1,0,-1
952.194,-1,-1,-1,0
952.195,0,-1,-1,0
952.195,1,0,-1,1
952.195,3,0,0,3
952.196,2,-1,0,4
952.197,5,0,1,8
952.197,6,0,3,9
952.198,6,2,3,9
952.198,8,4,5,9
952.199,8,5,6,8
952.199,8,5,4,6
952.2,7,5,3,3
952.201,6,4,3,0
952.201,2,3,1,0
952.202,1,2,0,0
952.202,1,0,-1,0
952.203,1,0,0,0
952.203,1,1,0,1
952.204,1,0,0,0
952.205,1,0,0,1
952.205,2,3,3,4
952.206,3,3,3,4
952.206,3,2,1,2
952.207,3,1,0,1
952.207,5,3,1,3
952.208,6,4,2,3
952.209,8,8,5,4
952.209,8,10,7,2
952.21,5,7,3,0
952.21,2,5,1,-2
952.211,-3,3,3,-3
952.212,-7,-1,4,0
952.212,-4,0,4,2
952.213,0,3,5,4
952.213,3,8,8,4
952.214,6,10,8,3
952.214,4,5,3,0
952.215,-1,-3,-3,-1
952.216,-3,-12,-9,2
952.216,6,-5,-7,6
952.217,14,2,-2,7
952.217,12,4,0,6
952.218,8,4,3,7
952.218,7,4,4,8
952.219,8,4,4,6
952.22,6,3,2,2
952.22,2,0,1,1
952.221,1,0,1,2
952.221,2,2,2,5
952.222,6,5,2,5
952.222,13,9,0,1
952.223,10,9,0,-1
952.223,7,10,2,-2
952.224,2,5,0,-3
952.225,-2,0,-3,-7
952.225,-6,-5,-5,-5
952.226,-5,-4,-2,0
952.226,0,1,3,4
952.227,4,5,5,4
952.228,3,5,7,2
952.228,-2,1,8,4
952.229,0,4,11,8
952.229,4,7,11,9
952.23,5,6,7,6
952.23,6,7,7,4
952.231,4,6,5,3
952.232,6,9,4,3
952.232,11,12,2,-3
952.233,2,1,-6,-8
952.233,-6,-6,-9,-5
952.234,-2,-2,-2,-2
952.234,-1,0,0,0
952.235,-1,0,1,2
952.236,0,0,4,6
952.236,3,0,5,9
952.237,6,1,2,6
952.237,4,0,1,6
952.238,5,1,3,8
952.238,9,5,6,9
952.239,9,6,5,6
952.24,6,3,2,4
952.24,4,2,0,4
952.241,8,6,0,4
952.241,10,7,0,1
952.242,5,4,0,-1
952.242,1,0,-2,-3
952.243,-1,-1,-3,-3
952.244,-2,-2,-2,0
952.244,0,0,1,2
952.245,2,3,3,3
952.245,3,3,4,3
952.246,3,2,3,3
952.246,1,2,3,3
952.247,2,3,4,5
952.248,5,6,7,6
952.248,6,7,5,5
952.249,5,6,4,3
952.249,3,5,3,0
952.25,3,5,3,0
952.25,3,7,4,0
952.251,2,7,5,0
952.252,2,5,2,-2
952.252,0,2,0,-3
952.253,-1,1,0,0
952.253,0,1,0,0
952.254,1,2,1,1
952.254,2,0,0,1
952.255,1,0,0,2
952.256,3,0,0,5
952.256,4,0,1,5
952.257,5,1,0,6
952.257,5,1,0,7
952.258,6,2,2,7
952.258,8,4,3,6
952.259,8,5,4,5
952.26,6,4,2,5
952.26,6,4,3,6
952.261,7,3,0,3
952.261,5,2,-1,0
952.262,2,0,-2,-1
952.263,0,0,-1,0
952.263,0,2,0,0
952.264,1,2,1,0
952.264,1,2,1,1
952.265,1,2,1,2
952.265,4,5,4,3
952.266,5,5,4,3
952.267,4,4,2,1
952.267,2,3,2,1
952.268,4,5,4,3
952.268,5,7,4,2
952.269,5,8,5,1
952.269,4,7,4,0
952.27,1,5,3,0
952.271,0,5,4,0
952.271,1,4,3,0
952.272,0,2,1,-1
952.272,-1,1,1,-1
952.273,-2,-1,1,0
952.273,-4,-3,0,1
952.274,-2,-2,2,5
952.275,2,1,5,8
952.275,6,4,6,8
952.276,6,3,4,8
952.276,6,2,2,8
952.277,9,3,1,8
952.277,12,5,0,6
952.278,10,4,-1,1
952.279,6,3,1,1
952.279,2,2,2,1
952.28,1,0,0,3
952.28,6,4,-1,1
952.281,8,6,-1,-1
952.281,2,2,-1,-1
952.282,0,1,0,0
952.283,1,2,1,0
952.283,3,5,3,0
952.284,2,4,2,1
952.284,2,3,1,2
952.285,5,4,0,0
952.285,1,1,0,0
952.286,0,0,0,1
952.287,2,1,0,2
952.287,4,4,3,3
952.288,4,6,6,3
952.288,2,3,5,2
952.289,0,5,6,2
952.289,0,5,8,4
952.29,0,5,9,5
952.291,1,5,8,4
952.291,0,3,6,2
952.292,-1,0,4,6
952.292,8,7,3,4
952.293,9,7,1,1
952.294,7,5,-1,-2
952.294,1,0,-3,-3
952.295,-2,-3,-4,-3
952.295,-3,-4,-3,0
952.296,0,-3,0,4
952.297,2,-1,1,9
952.297,10,4,2,9
952.298,12,5,1,6
952.298,9,6,2,6
952.299,8,5,3,7
952.299,11,8,3,5
952.3,10,7,0,0
952.3,3,1,-1,0
952.301,0,0,-2,0
952.302,0,0,0,0
952.302,1,0,-1,-1
952.303,0,1,2,1
952.303,1,4,4,2
952.304,1,3,4,1
952.304,1,2,3,1
952.305,0,2,2,1
952.306,1,3,3,2
952.306,0,2,3,4
952.307,3,1,0,4
952.307,6,2,0,2
952.308,4,3,3,4
952.309,5,3,3,4
952.309,6,5,5,5
952.31,7,9,8,4
952.31,5,9,7,2
952.311,2,4,4,0
952.311,1,4,4,1
952.312,2,5,3,-1
952.313,0,4,2,-2
952.313,-2,1,0,-3
952.314,-3,0,0,-2
952.314,-3,-2,0,0
952.315,-1,-2,0,2
952.315,2,0,0,4
952.316,2,-3,-2,4
952.317,5,-3,-1,8
952.317,10,3,2,10
952.318,13,7,6,10
952.318,12,10,7,8
952.319,8,7,5,4
952.319,3,4,4,4
952.32,3,3,2,1
952.321,0,-1,-1,0
952.321,1,-1,-3,0
952.322,3,1,0,1
952.322,2,2,1,0
952.323,1,2,1,1
952.323,2,1,1,1
952.324,0,-1,-1,0
952.325,-1,-1,1,3
952.325,2,1,4,6
952.326,5,4,6,7
952.326,5,4,6,5
952.327,4,4,5,5
952.327,6,6,5,6
952.328,11,12,6,4
952.329,12,14,4,0
952.329,6,8,0,-2
952.33,4,6,-1,-6
952.33,-1,3,-1,-7
952.331,-4,0,-3,-6
952.331,-5,-1,0,-3
952.332,-3,0,0,0
952.333,1,2,3,2
952.333,3,3,4,3
952.334,3,4,4,3
952.334,2,3,3,3
952.335,3,1,2,4
952.335,3,2,2,5
952.336,5,3,3,6
952.337,5,1,1,5
952.337,3,0,0,4
952.338,4,0,1,6
952.338,6,3,4,8
952.339,8,4,3,6
952.339,7,4,2,4
952.34,4,2,0,1
952.341,1,0,0,1
952.341,3,2,0,2
952.342,5,4,2,2
952.342,4,3,1,0
952.343,-1,-2,0,0
952.344,-1,-2,0,2
952.344,1,-1,0,4
952.345,4,2,2,4
952.345,5,4,3,2
952.346,4,5,6,5
952.346,4,5,3,5
952.347,8,8,2,2
952.348,6,3,-2,-1
952.348,2,3,0,-1
952.349,1,4,3,1
952.349,2,6,5,1
952.35,1,5,4,0
952.35,0,3,4,1
952.351,1,5,6,4
952.352,4,5,5,2
952.352,2,3,2,0
952.353,0,1,1,0
952.353,0,1,1,1
952.354,2,1,1,2
952.354,3,2,1,2
952.355,4,3,0,1
952.356,3,2,0,1
952.356,2,1,1,2
952.357,2,0,0,4
952.357,3,-1,0,5
952.358,7,4,3,7
952.358,8,6,6,6
952.359,7,6,6,5
952.36,3,2,2,3
952.36,2,0,0,2
952.361,1,0,0,2
952.361,3,0,0,3
952.362,5,1,0,1
952.362,2,0,0,1
952.363,3,2,3,3
952.364,3,2,2,3
952.364,3,1,1,2
952.365,3,2,1,3
952.365,5,6,4,3
952.366,4,4,3,3
952.366,4,3,1,4
952.367,10,7,1,1
952.368,5,5,0,-1
952.368,0,2,1,0
952.369,1,4,4,1
952.369,0,5,4,0
952.37,0,4,4,0
952.37,0,4,5,0
952.371,0,5,6,3
952.372,4,7,5,3
952.372,5,6,2,-1
952.373,0,1,-2,-4
952.373,-2,0,0,0
952.374,1,2,1,1
952.375,3,1,0,1
952.375,2,0,0,2
952.376,1,-1,-1,4
952.376,4,-2,-1,5
952.377,6,0,0,7
952.377,9,2,2,8
952.378,9,3,3,8
952.379,7,5,5,7
952.379,7,5,5,6
952.38,4,3,3,4
952.38,2,1,2,3
952.381,1,0,0,1
952.381,0,0,0,3
952.382,4,2,1,6
952.383,12,8,1,3
952.383,10,8,0,-2
952.384,2,3,-1,-3
952.384,1,1,-2,-3
952.385,0,1,-1,-1
952.385,1,2,0,-1
952.386,0,2,2,0
952.387,0,4,4,1
952.387,1,2,4,3
952.388,2,2,4,3
952.388,3,4,5,3
952.389,3,8,8,4
952.39,3,8,9,4
952.39,3,7,7,2
952.391,0,2,3,0
952.391,0,1,1,0
952.392,1,1,0,0
952.392,2,2,1,1
952.393,3,4,3,2
952.393,3,3,2,3
952.394,2,0,-1,0
952.395,0,-2,-3,0
952.395,2,0,0,3
952.396,5,2,2,6
952.396,5,1,3,7
952.397,6,1,1,8
952.398,10,4,1,7
952.398,10,6,1,4
952.399,7,5,3,3
952.399,5,3,2,2
952.4,2,0,0,0
952.4,0,0,0,0
952.401,0,1,1,2
952.402,1,2,3,3
952.402,3,4,3,2
952.403,2,2,2,1
952.403,2,1,1,0
952.404,1,2,2,1
952.404,2,2,1,1
952.405,2,3,2,3
952.406,3,2,2,2
952.406,2,1,1,2
952.407,3,1,0,3
952.407,4,4,3,4
952.408,5,5,5,4
952.408,2,4,5,4
952.409,3,6,6,3
952.41,4,7,6,2
952.41,5,8,5,1
952.411,3,6,2,0
952.411,3,5,0,-2
952.412,1,3,0,-4
952.412,-2,0,-1,-2
952.413,0,0,0,-2
952.414,0,1,1,0
952.414,0,1,3,3
952.415,1,2,3,6
952.415,7,4,2,6
952.416,11,6,0,6
952.417,14,7,-1,1
952.417,6,1,-4,0
952.418,2,0,-2,0
952.418,0,-1,-1,3
952.419,1,-2,0,5
952.419,5,3,4,8
952.42,8,8,8,7
952.42,7,6,6,5
952.421,3,0,1,3
952.422,3,1,0,1
952.422,4,3,1,2
952.423,3,3,2,2
952.423,4,5,3,1
952.424,2,3,2,0
952.424,0,2,2,0
952.425,0,1,0,1
952.426,2,2,1,1
952.426,3,4,2,1
952.427,2,3,2,2
952.427,2,3,2,1
952.428,1,1,1,2
952.429,4,5,4,2
952.429,5,7,7,4
952.43,4,8,7,3
952.43,3,6,6,1
952.431,1,4,4,0
952.431,0,2,2,0
952.432,0,1,1,0
952.433,0,1,1,0
952.433,0,0,0,1
952.434,0,0,1,2
952.434,2,0,1,4
952.435,4,2,1,4
952.435,5,0,1,5
952.436,5,0,0,3
952.437,3,0,1,4
952.437,3,1,3,8
952.438,7,4,4,9
952.438,13,10,4,7
952.439,12,7,0,2
952.439,9,5,-2,0
952.44,7,5,-1,-2
952.441,0,-1,-2,-3
952.441,-4,-4,-1,-1
952.442,-2,-1,2,3
952.442,0,3,8,6
952.443,2,4,9,6
952.443,1,2,7,4
952.444,0,1,4,3
952.445,2,2,2,2
952.445,1,1,1,1
952.446,4,4,1,2
952.446,8,9,1,0
952.447,5,7,1,-1
952.447,2,4,1,0
952.448,0,3,1,0
952.449,0,3,2,0
952.449,0,3,4,2
952.45,2,4,5,4
952.45,5,8,6,3
952.451,6,7,4,2
952.451,2,4,2,0
952.452,2,3,0,0
952.453,1,3,2,0
952.453,0,1,1,0
952.454,0,-1,0,1
952.454,0,0,1,3
952.455,0,0,3,4
952.456,0,-2,1,5
952.456,1,-2,2,5
952.457,2,0,3,7
952.457,4,0,5,9
952.458,7,2,4,12
952.458,14,6,2,11
952.459,17,10,1,5
952.46,10,5,-2,0
952.46,5,2,-1,0
952.461,3,2,-2,-1
952.461,3,2,-2,0
952.462,3,2,0,0
952.462,0,0,0,0
952.463,0,-2,-2,0
952.464,0,-1,-1,1
952.464,2,2,2,2
952.465,4,4,3,3
952.465,5,5,5,4
952.466,4,5,4,3
952.466,2,3,3,1
952.467,0,2,4,3
952.468,2,5,7,5
952.468,4,7,8,5
952.469,6,8,7,5
952.469,6,8,5,3
952.47,8,10,3,0
952.471,8,10,0,-3
952.471,3,5,-1,-5
952.472,0,2,-2,-7
952.472,-4,0,-3,-6
952.473,-4,-1,-3,-5
952.473,-4,-2,-1,-2
952.474,-2,-2,0,2
952.474,0,-2,2,5
952.475,4,2,6,10
952.476,8,5,7,9
952.476,7,5,6,8
952.477,8,5,7,10
952.477,9,6,5,7
952.478,6,3,2,4
952.479,5,3,2,2
952.479,4,1,-1,1
952.48,3,0,0,2
952.48,4,2,0,3
952.481,3,0,0,1
952.481,3,0,-2,0
952.482,3,-1,-3,1
952.482,3,0,0,3
952.483,6,6,4,5
952.484,7,8,7,4
952.484,4,4,3,0
952.485,0,0,0,0
952.485,-1,-1,0,1
952.486,0,0,2,2
952.486,1,1,4,3
952.487,1,3,6,4
952.488,3,6,8,7
952.488,6,8,9,8
952.489,12,12,6,4
952.489,9,11,2,-3
952.49,0,3,0,-4
952.49,0,3,0,-3
952.491,0,3,0,-3
952.492,-1,1,-1,-3
952.492,-1,1,0,-1
952.493,1,2,1,0
952.493,2,4,3,3
952.494,3,3,3,2
952.495,2,1,1,2
952.495,2,0,0,3
952.496,3,1,1,5
952.496,5,1,2,6
952.497,5,0,1,7
952.497,6,0,0,6
952.498,7,2,2,7
952.499,8,4,3,6
952.499,7,5,5,6
952.5,6,4,3,3
952.5,3,2,2,2
952.501,1,0,1,1
952.501,0,0,1,1
952.502,1,0,0,3
952.503,3,2,2,3
952.503,4,2,2,2
952.504,3,3,2,2
952.504,4,4,1,2
952.505,3,3,1,2
952.505,3,2,1,1
952.506,2,1,0,2
952.507,3,2,0,1
952.507,3,3,1,3
952.508,5,6,4,4
952.508,5,7,4,3
952.509,4,8,5,2
952.51,3,6,5,2
952.51,2,7,5,0
952.511,1,5,3,-1
952.511,-1,2,2,-2
952.512,-1,2,3,0
952.512,-1,0,1,0
952.513,-2,-2,-1,0
952.513,0,0,2,2
952.514,1,1,2,4
952.515,2,1,2,6
952.515,6,3,3,8
952.516,11,6,3,6
952.516,9,3,0,3
952.517,5,0,-1,3
952.517,5,0,0,4
952.518,5,3,2,6
952.519,7,4,4,4
952.519,5,4,3,3
952.52,3,1,0,1
952.52,3,1,0,0
952.521,2,1,0,2
952.521,4,3,1,4
952.522,9,7,2,2
952.523,8,9,2,0
952.523,3,3,0,-2
952.524,-1,0,-1,-2
952.524,-1,1,1,0
952.525,0,1,1,2
952.526,5,5,2,3
952.526,7,7,5,2
952.527,2,2,2,2
952.527,2,1,1,3
952.528,5,4,1,0
952.528,3,3,1,1
952.529,2,4,4,3
952.53,5,9,8,3
952.53,4,9,7,1
952.531,0,3,1,-1
952.531,-1,1,2,0
952.532,2,4,4,3
952.532,3,4,3,2
952.533,4,2,0,0
952.534,0,0,-1,-1
952.534,0,0,0,0
952.535,1,0,0,2
952.535,1,0,1,2
952.536,1,0,1,5
952.537,6,2,2,9
952.537,14,9,4,6
952.538,8,4,0,2
952.538,4,3,2,4
952.539,4,2,1,3
952.539,4,0,0,2
952.54,2,1,0,2
952.541,2,0,0,3
952.541,3,-1,-1,2
952.542,2,0,0,3
952.542,1,1,4,3
952.543,0,0,4,5
952.543,1,1,4,6
952.544,4,5,7,6
952.545,4,6,7,5
952.545,5,4,3,2
952.546,2,2,2,2
952.546,3,2,1,4
952.547,9,7,1,4
952.547,11,9,0,-1
952.548,2,4,-1,-3
952.548,0,3,0,-3
952.549,0,4,3,-2
952.55,0,5,4,-1
952.55,0,4,4,0
952.551,1,6,4,0
952.551,2,6,5,1
952.552,1,4,3,0
952.552,0,3,2,0
952.553,-1,0,0,0
952.554,1,0,0,3
952.554,3,0,1,4
952.555,4,0,-1,4
952.555,4,-2,-2,5
952.556,8,3,1,6
952.557,9,5,3,6
952.557,7,5,4,5
952.558,7,3,3,5
952.558,6,5,4,4
952.559,5,5,3,3
952.559,3,3,1,1
952.56,2,-1,-1,1
952.561,2,-2,-3,1
952.561,1,-1,-1,1
952.562,4,1,0,3
952.562,5,3,2,4
952.563,6,4,3,3
952.563,5,5,3,3
952.564,4,4,3,1
952.565,0,2,3,1
952.565,0,0,2,1
952.566,0,1,3,2
952.566,1,2,5,4
952.567,2,3,6,4
952.568,2,2,3,3
952.568,3,3,2,4
952.569,9,9,5,3
952.569,6,7,3,0
952.57,2,4,2,0
952.57,1,4,2,1
952.571,5,8,4,1
952.571,5,7,1,-1
952.572,1,3,-1,-3
952.573,0,0,-2,-3
952.573,-1,0,-1,-1
952.574,0,2,1,0
952.574,1,1,1,3
952.575,3,2,1,3
952.576,3,1,1,4
952.576,4,0,0,3
952.578,3,0,0,5
952.578,5,1,2,6
952.578,8,4,5,8
952.578,7,5,5,7
952.579,5,3,2,5
952.58,4,1,1,3
952.58,3,2,2,3
952.581,2,2,3,3
952.581,3,2,3,3
952.582,3,1,1,2
952.582,2,1,0,1
952.583,2,2,1,1
952.584,2,3,3,2
952.584,2,3,2,2
952.585,2,3,2,1
952.585,2,2,1,1
952.586,2,3,2,1
952.586,1,1,0,2
952.587,1,-1,0,2
952.588,4,1,1,4
952.588,7,7,5,4
952.589,6,9,7,5
952.589,8,11,7,4
952.59,9,11,5,2
952.591,7,10,3,-2
952.591,0,2,0,-6
952.592,-5,-1,-2,-5
952.592,-4,-2,-2,-2
952.593,0,1,0,0
952.593,2,2,1,0
952.594,0,1,2,2
952.594,1,1,1,4
952.595,2,0,1,4
952.596,5,1,2,7
952.596,8,2,1,6
952.597,8,3,1,5
952.597,7,3,2,5
952.598,6,6,4,6
952.599,7,7,5,5
952.599,8,9,5,3
952.6,4,5,3,0
952.6,0,-1,-2,-1
952.601,-3,-5,-2,-1
952.601,-2,-3,0,1
952.602,1,1,2,6
952.603,8,6,5,5
952.603,8,7,5,4
952.604,4,4,3,3
952.604,5,4,1,4
952.605,8,5,-1,0
952.605,6,4,-1,-3
952.606,0,0,-1,-2
952.607,0,0,0,0
952.607,1,1,1,0
952.608,1,2,2,2
952.608,4,6,5,4
952.609,5,10,8,5
952.609,6,10,8,3
952.61,3,7,5,0
952.611,0,3,2,-2
952.611,-3,1,2,0
952.612,-1,2,3,1
952.612,0,2,2,1
952.613,1,2,2,1
952.613,1,0,1,2
952.614,1,0,2,4
952.615,4,1,3,5
952.615,3,0,2,5
952.616,2,0,1,5
952.616,2,0,2,5
952.617,3,0,2,7
952.617,7,2,4,7
952.618,7,6,6,8
952.619,7,5,4,6
952.619,5,2,1,4
952.62,8,4,0,4
952.62,14,8,-1,0
952.621,7,4,-3,-5
952.621,0,0,-4,-4
952.622,-1,0,-2,-2
952.623,-1,0,0,0
952.623,0,2,2,1
952.624,0,2,3,3
952.624,2,3,4,4
952.625,3,4,4,4
952.625,4,5,5,3
952.626,4,6,4,1
952.627,2,3,3,1
952.627,1,1,0,2
952.628,2,0,-1,2
952.628,5,4,2,3
952.629,5,6,6,3
952.629,4,7,7,4
952.63,5,9,7,3
952.631,4,7,5,4
952.631,7,7,3,0
952.632,4,4,-1,-3
952.632,-1,-1,-3,-3
952.633,-1,-1,-1,-1
952.633,0,0,-1,-1
952.634,0,0,0,1
952.635,2,1,0,3
952.635,5,4,3,4
952.636,6,5,4,6
952.636,6,3,2,4
952.637,3,0,0,3
952.638,2,-1,0,4
952.638,5,2,4,8
952.639,8,5,5,7
952.639,7,5,5,5
952.64,5,3,1,2
952.64,2,1,0,0
952.641,0,0,0,1
952.642,1,0,0,3
952.642,3,0,0,4
952.643,4,3,1,2
952.643,3,3,2,2
952.644,2,1,2,3
952.644,4,4,3,3
952.645,4,4,2,2
952.646,3,2,1,0
952.646,1,1,0,0
952.647,1,3,2,2
952.647,3,5,4,2
952.648,3,6,5,2
952.648,3,5,5,2
952.649,2,5,6,1
952.65,0,3,3,0
952.65,0,2,4,1
952.651,1,3,4,2
952.651,2,5,4,2
952.652,3,4,2,2
952.652,6,6,1,0
952.653,4,4,0,-2
952.654,0,0,-1,-1
952.654,-1,-2,-1,0
952.655,1,-1,0,2
952.655,3,0,0,4
952.656,3,-2,-1,7
952.657,10,3,1,11
952.657,19,11,2,7
952.658,13,7,0,2
952.658,6,3,1,3
952.659,4,3,2,2
952.659,2,3,3,0
952.66,1,3,3,0
952.661,0,3,2,0
952.661,-1,0,2,1
952.662,0,1,3,2
952.662,0,1,2,1
952.663,0,-3,-1,0
952.663,0,-3,-2,2
952.664,3,0,2,6
952.665,6,4,5,7
952.665,7,6,4,4
952.666,5,5,4,3
952.666,4,4,3,4
952.667,5,6,4,4
952.667,4,6,3,2
952.668,4,6,3,1
952.669,4,7,3,0
952.669,3,7,4,0
952.67,2,6,3,0
952.67,0,5,3,-1
952.671,-1,2,1,-2
952.671,-1,1,0,-1
952.672,0,2,1,0
952.673,2,3,1,0
952.673,0,0,0,0
952.674,-1,-1,0,1
952.674,0,0,1,5
952.675,4,1,1,6
952.675,6,2,2,7
952.676,5,1,2,6
952.677,5,0,2,6
952.677,5,1,2,7
952.678,6,3,4,7
952.678,5,5,6,6
952.679,5,4,5,6
952.68,3,3,3,4
952.68,5,4,2,4
952.681,8,5,1,0
952.681,3,2,0,0
952.682,2,2,0,0
952.682,5,4,-1,0
952.683,8,6,-2,-2
952.683,3,1,-4,-3
952.684,0,-2,-4,-3
952.685,0,-1,-1,0
952.685,1,1,0,2
952.686,3,4,3,4
952.686,6,6,5,5
952.687,7,7,7,4
952.688,4,5,4,2
952.688,2,3,4,2
952.689,3,6,6,2
952.689,3,7,6,1
952.69,2,7,6,1
952.69,0,4,4,0
952.691,-1,1,3,0
952.691,0,1,2,1
952.692,1,2,1,1
952.693,2,2,1,2
952.693,4,3,0,1
952.694,5,3,0,2
952.694,4,3,0,1
952.695,6,3,0,1
952.695,5,2,0,2
952.696,4,1,0,2
952.697,1,0,0,2
952.697,1,-2,0,4
952.698,2,1,4,7
952.698,6,5,7,7
952.699,5,5,7,6
952.7,3,3,4,3
952.7,1,0,2,4
952.701,3,1,0,5
952.701,10,5,0,4
952.702,11,6,-1,0
952.702,4,2,-1,0
952.703,1,0,-1,0
952.704,4,4,0,0
952.704,0,0,-1,-2
952.705,-1,0,1,1
952.705,2,2,3,2
952.706,2,3,4,2
952.706,1,1,3,2
952.707,0,0,3,4
952.708,2,2,6,5
952.708,4,6,8,8
952.709,7,8,8,5
952.709,5,7,6,3
952.71,5,6,4,3
952.711,10,12,4,2
952.711,11,13,1,-3
952.712,2,3,-3,-7
952.712,-2,-1,-5,-6
952.713,-4,-2,-3,-5
952.713,-3,-1,-1,-1
952.714,-1,0,1,2
952.715,2,0,1,5
952.715,5,2,2,5
952.716,4,2,1,5
952.716,6,3,3,4
952.717,4,2,4,6
952.717,4,2,4,8
952.718,6,5,6,7
952.719,4,3,4,5
952.719,2,1,3,4
952.72,3,1,2,6
952.72,8,4,1,5
952.721,8,3,-1,0
952.721,3,0,-3,0
952.722,0,-4,-4,0
952.722,3,0,0,2
952.723,4,3,2,3
952.724,3,3,4,3
952.724,2,2,3,3
952.725,3,3,3,3
952.725,4,5,3,2
952.726,3,4,2,1
952.727,2,3,2,1
952.727,3,5,3,2
952.728,4,6,3,2
952.728,5,8,5,2
952.729,5,8,6,1
952.729,2,5,2,-1
952.73,0,4,3,-1
952.731,-1,2,2,-2
952.731,-3,0,2,-2
952.732,-4,-1,1,0
952.732,-2,0,3,2
952.733,0,2,5,6
952.733,4,4,5,7
952.734,6,4,4,7
952.735,10,6,2,5
952.735,9,5,0,2
952.736,4,-1,-4,1
952.736,1,-5,-6,1
952.737,2,-3,-3,3
952.738,6,1,1,5
952.738,9,7,7,8
952.739,9,9,8,7
952.739,8,6,4,3
952.74,2,2,1,1
952.74,1,0,0,1
952.741,4,2,0,1
952.742,4,3,1,0
952.742,1,1,1,0
952.743,0,0,0,0
952.743,0,0,2,1
952.744,0,0,3,4
952.744,4,4,4,5
952.745,6,7,5,6
952.746,10,10,5,2
952.746,6,6,1,-2
952.747,0,0,-2,-2
952.747,0,-1,-1,1
952.748,3,1,0,2
952.748,4,4,2,1
952.749,4,7,6,2
952.75,3,7,6,2
952.75,2,6,7,2
952.751,2,5,5,1
952.751,0,3,3,0
952.752,0,2,2,0
952.752,0,3,3,1
952.753,1,3,3,2
952.753,2,2,2,0
952.754,0,-1,0,1
952.755,0,-3,-1,3
952.755,3,0,0,4
952.756,4,1,1,6
952.756,7,3,2,6
952.757,7,3,2,6
952.758,7,4,3,8
952.758,15,13,7,8
952.759,15,14,4,0
952.759,2,1,-3,-4
952.76,-4,-7,-7,-3
952.76,-3,-6,-3,0
952.761,-1,-4,0,2
952.762,0,1,4,5
952.762,4,4,6,7
952.763,5,3,4,7
952.763,4,2,3,4
952.764,3,2,2,3
952.765,3,3,3,4
952.765,4,4,3,4
952.766,6,5,4,4
952.766,4,3,2,2
952.767,2,1,0,0
952.767,1,2,0,0
952.768,4,6,3,3
952.769,6,9,6,3
952.769,6,9,5,1
952.77,3,6,1,-2
952.77,0,4,0,-3
952.771,0,3,0,-2
952.771,2,5,1,-2
952.772,-1,1,0,-2
952.773,-2,0,0,-1
952.773,-1,0,2,0
952.774,0,1,3,3
952.774,2,1,3,6
952.775,6,3,2,5
952.775,6,2,1,4
952.776,5,0,0,3
952.777,3,-1,0,5
952.777,4,0,2,8
952.778,7,3,3,8
952.778,8,4,4,6
952.779,5,4,3,5
952.779,5,4,4,4
952.78,4,3,4,4
952.781,2,0,2,2
952.781,0,-1,0,1
952.782,0,0,0,2
952.782,1,0,2,3
952.783,4,3,4,4
952.783,5,5,4,2
952.784,2,4,3,1
952.785,1,1,1,0
952.785,0,0,0,1
952.786,3,2,0,2
952.786,4,4,1,3
952.787,9,9,2,4
952.787,11,10,2,0
952.788,5,7,1,-1
952.789,2,6,3,1
952.789,4,8,4,0
952.79,3,6,2,-3
952.79,-1,2,1,-2
952.791,-2,1,1,-1
952.792,-1,1,2,0
952.792,-1,0,1,0
952.793,0,1,1,1
952.793,1,3,2,3
952.794,4,3,3,4
952.794,5,4,2,3
952.795,5,3,0,3
952.796,6,2,0,4
952.796,8,3,0,4
952.797,5,0,-1,2
952.797,1,-4,-2,3
952.798,2,-1,0,5
952.798,4,1,4,7
952.799,6,5,7,8
952.799,6,5,7,8
952.8,6,4,4,5
952.801,4,2,1,2
952.801,3,1,0,1
952.802,3,2,0,1
952.802,4,4,2,1
952.803,2,3,1,0
952.804,1,0,0,0
952.804,1,0,0,0
952.805,3,3,1,2
952.805,6,5,1,2
952.806,6,5,1,1
952.806,4,4,0,0
952.807,3,4,1,0
952.808,4,5,2,1
952.808,3,5,2,1
952.809,2,6,5,1
952.809,0,4,6,0
952.81,-2,2,5,0
952.81,-2,2,6,2
952.811,0,4,6,3
952.812,1,4,5,2
952.812,0,2,4,3
952.813,1,1,2,2
952.813,2,1,2,3
952.814,3,1,0,3
952.814,3,2,1,3
952.815,3,0,0,3
952.816,4,0,0,4
952.816,7,2,-1,4
952.817,10,4,0,3
952.817,7,3,0,2
952.818,5,3,2,4
952.818,4,2,2,4
952.819,5,2,1,3
952.82,3,2,1,4
952.82,5,4,2,6
952.821,13,9,1,3
952.821,11,9,0,-3
952.822,0,0,-3,-5
952.822,-2,-1,-2,-3
952.823,-2,0,0,-1
952.824,-2,0,2,1
952.824,0,1,3,3
952.825,0,1,5,5
952.825,0,0,4,7
952.826,3,1,4,8
952.827,7,4,5,8
952.827,10,8,6,7
952.828,11,9,4,7
952.828,16,13,2,1
952.829,8,9,0,-4
952.829,1,4,-1,-5
952.83,-1,2,-1,-5
952.831,-1,4,1,-2
952.831,0,6,3,-2
952.832,-2,3,3,-2
952.832,-5,0,2,-1
952.833,-5,-1,3,2
952.833,0,0,4,4
952.834,0,0,3,5
952.835,3,1,4,5
952.835,2,1,3,7
952.836,4,2,3,8
952.836,5,1,2,6
952.837,5,0,1,6
952.837,5,1,1,6
952.838,7,5,4,8
952.839,8,4,3,6
952.839,6,3,0,4
952.84,6,3,0,2
952.84,5,3,1,2
952.841,4,3,1,1
952.841,3,3,1,1
952.842,2,2,1,1
952.843,1,2,1,0
952.843,0,3,3,0
952.844,0,2,3,0
952.844,-2,0,1,0
952.845,-2,-2,1,3
952.845,0,-3,0,5
952.846,3,-3,-1,8
952.847,14,8,2,8
952.847,17,16,7,6
952.848,12,13,5,3
952.848,10,12,3,-2
952.849,4,7,1,-5
952.849,-2,3,0,-6
952.85,-5,0,0,-5
952.851,-7,-2,0,-3
952.851,-4,-2,0,0
952.852,0,0,2,3
952.852,2,1,3,4
952.853,3,3,3,7
952.853,11,9,5,8
952.854,15,12,4,3
952.855,5,4,0,0
952.855,0,-2,-3,0
952.856,0,-2,-3,1
952.856,2,-2,-1,2
952.857,3,-1,0,4
952.857,6,2,1,6
952.858,8,5,6,7
952.859,4,2,4,6
952.859,2,1,3,5
952.86,2,2,5,4
952.86,3,5,6,4
952.861,4,5,6,4
952.861,1,3,4,1
952.862,0,0,0,1
952.863,1,0,0,1
952.863,2,1,1,2
952.864,3,2,1,1
952.864,0,1,1,1
952.865,-1,0,2,1
952.865,-1,0,3,3
952.866,0,1,5,4
952.867,2,4,8,7
952.867,5,5,8,7
952.868,6,6,5,7
952.868,11,9,3,5
952.869,15,12,0,-1
952.87,8,8,-2,-5
952.87,2,5,-1,-5
952.871,0,3,-2,-5
952.871,-2,1,-2,-5
952.872,-3,0,0,-2
952.872,-2,0,1,0
952.873,1,2,3,3
952.874,4,3,3,3
952.874,3,1,1,3
952.875,4,0,-1,3
952.875,4,0,0,4
952.876,5,1,0,4
952.876,6,1,1,5
952.877,7,4,2,5
952.878,7,4,3,5
952.878,5,2,3,5
952.879,5,2,2,5
952.879,5,3,3,4
952.88,5,4,4,4
952.88,3,3,3,3
952.881,2,1,1,2
952.882,2,0,0,1
952.882,2,0,0,1
952.883,2,2,2,1
952.883,2,3,3,2
952.884,2,3,2,1
952.885,0,2,2,2
952.885,2,3,3,2
952.886,2,3,3,2
952.886,3,4,3,1
952.887,2,4,3,2
952.887,3,3,1,1
952.888,1,1,0,1
952.889,3,4,2,0
952.889,2,5,4,1
952.89,2,6,6,3
952.89,2,6,7,3
952.891,1,3,5,2
952.891,1,2,3,1
952.892,0,0,2,1
952.893,0,1,3,3
952.893,3,3,3,5
952.894,7,5,2,4
952.894,6,3,0,0
952.895,3,0,-1,2
952.895,7,3,-2,3
952.896,10,5,-1,0
952.897,5,2,-2,0
952.897,1,0,-2,1
952.898,2,1,0,2
952.898,4,3,2,3
952.899,4,4,3,4
952.899,4,1,0,4
952.9,4,0,0,4
952.901,4,1,0,4
952.901,4,2,1,3
952.902,4,3,3,4
952.902,4,4,5,5
952.903,3,4,4,5
952.904,5,5,2,2
952.904,4,3,1,0
952.905,1,2,0,0
952.905,2,2,0,0
952.906,2,2,0,0
952.906,0,2,1,0
952.907,1,4,3,1
952.907,2,5,5,3
952.908,4,6,6,3
952.909,5,8,7,2
952.909,3,6,6,1
952.91,1,4,3,0
952.91,-1,1,1,0
952.911,0,1,1,2
952.911,6,4,0,0
952.912,2,1,-1,0
952.913,0,-1,0,1
952.913,1,0,1,3
952.914,3,1,3,4
952.914,4,4,4,6
952.915,5,4,4,5
952.915,5,3,2,3
952.916,4,2,1,2
952.917,2,-1,-1,2
952.917,2,-2,-2,3
952.918,6,2,1,5
952.918,8,5,4,7
952.919,8,5,4,5
952.919,5,5,3,4
952.92,5,3,3,4
952.921,3,1,1,2
952.921,1,0,1,2
952.922,1,0,0,0
952.922,0,0,0,1
952.923,1,2,2,2
952.924,2,2,2,2
952.924,2,2,1,0
952.925,2,2,0,1
952.925,2,3,3,3
952.926,4,4,3,2
952.926,3,3,3,2
952.927,2,3,3,2
952.928,2,3,3,1
952.928,2,5,4,3
952.929,4,7,6,3
952.929,4,7,6,1
952.93,1,6,6,1
952.93,1,4,3,3
952.931,6,7,1,0
952.932,4,5,-1,-3
952.932,0,0,-1,-2
952.933,0,0,0,0
952.933,3,2,0,3
952.934,9,5,-1,2
952.935,11,8,0,-1
952.935,4,3,-1,0
952.936,1,0,-2,0
952.936,1,-1,-2,0
952.937,1,-1,-1,2
952.937,3,0,1,7
952.938,8,7,6,9
952.938,9,8,7,6
952.939,5,2,4,3
952.94,0,0,2,2
952.94,-2,-2,3,3
952.941,0,1,5,5
952.941,2,2,4,6
952.942,3,1,2,4
952.943,3,2,2,2
952.943,2,2,2,2
952.944,3,3,3,4
952.944,8,8,3,2
952.945,6,6,1,0
952.945,2,2,-1,0
952.946,0,0,-2,0
952.947,1,1,1,1
952.947,1,3,4,4
952.948,6,7,5,6
952.948,12,13,4,1
952.949,6,9,3,-2
952.949,-2,3,4,-2
952.95,-3,2,4,-1
952.951,-3,0,2,0
952.951,-2,0,1,1
952.952,0,0,1,2
952.952,2,1,1,3
952.953,3,2,3,4
952.953,3,2,3,5
952.954,5,3,3,7
952.955,10,5,2,5
952.955,7,2,-1,2
952.956,4,-1,-3,1
952.956,2,-2,-3,3
952.957,5,0,-1,5
952.957,7,3,2,6
952.958,8,7,5,6
952.959,7,7,6,6
952.959,6,4,2,3
952.96,3,3,0,1
952.96,2,1,0,0
952.961,2,2,1,1
952.961,2,2,0,0
952.962,1,2,1,1
952.963,3,4,2,0
952.963,2,3,2,0
952.964,0,0,0,0
952.964,0,0,0,0
952.965,0,1,2,2
952.965,1,1,4,6
952.966,6,4,3,5
952.967,8,6,4,3
952.967,2,0,1,1
952.968,0,1,2,3
952.968,2,2,4,3
952.969,0,2,6,4
952.969,1,5,9,4
952.97,0,4,9,5
952.971,0,4,8,6
952.971,5,8,8,4
952.972,4,5,2,2
952.972,4,3,0,2
952.973,11,7,-2,1
952.974,15,10,-4,-5
952.974,3,2,-6,-8
952.975,-4,-4,-6,-5
952.975,-3,-3,-5,-2
952.976,-2,-3,-2,2
952.976,2,-2,0,5
952.977,4,0,1,7
952.978,8,4,4,8
952.978,10,7,6,7
952.979,9,7,6,7
952.979,7,7,6,5
952.98,5,7,6,3
952.98,4,5,4,1
952.981,0,0,0,0
952.982,-1,0,0,0
952.982,1,1,0,0
952.983,2,2,0,1
952.983,2,3,1,0
952.984,1,1,1,1
952.984,1,1,2,1
952.985,2,2,2,2
952.986,5,4,3,3
952.986,5,5,3,2
952.987,4,5,2,3
952.987,3,4,3,2
952.988,3,4,3,1
952.988,3,6,5,2
952.989,4,7,6,2
952.99,3,7,5,2
952.99,2,6,3,0
952.991,0,0,0,0
952.991,-1,0,0,0
952.992,0,1,1,1
952.992,2,3,2,2
952.993,2,2,2,3
952.994,3,2,1,2
952.994,3,0,0,2
952.995,2,0,1,4
952.995,3,0,0,5
952.996,5,0,1,6
952.996,5,1,0,5
952.997,5,1,1,6
952.998,6,3,3,7
952.998,7,5,5,6
952.999,6,4,4,4
952.999,5,3,3,3
953,4,2,2,2
953.001,3,2,0,0
953.001,2,1,0,0
953.002,1,1,0,0
953.002,1,1,0,1
953.003,1,1,1,1
953.003,2,1,0,1
953.004,2,1,1,2
953.004,3,2,2,2
953.005,4,3,2,3
953.006,4,4,3,3
953.006,3,4,3,2
953.007,2,2,3,2
953.007,4,5,4,2
953.008,2,5,4,2
953.008,2,5,5,2
953.009,1,2,3,2
953.01,2,3,2,2
953.01,4,5,4,4
953.011,8,9,4,2
953.011,7,8,2,-1
953.012,2,2,-1,-3
953.013,-1,0,-1,-2
953.013,-1,0,0,0
953.014,1,1,0,0
953.014,1,1,1,2
953.015,3,0,0,3
953.015,4,1,0,4
953.016,6,0,0,5
953.017,7,1,0,4
953.017,7,2,1,4
953.018,7,4,4,5
953.018,6,5,4,5
953.019,4,3,3,3
953.019,1,1,2,3
953.02,2,2,3,3
953.021,1,1,3,3
953.021,2,1,3,4
953.022,3,2,2,3
953.022,3,3,2,2
953.023,2,2,1,1
953.023,1,2,2,2
953.024,2,2,1,3
953.025,3,3,1,2
953.025,4,3,2,2
953.026,3,3,2,3
953.026,5,4,2,3
953.027,5,5,4,3
953.028,5,6,3,2
953.028,3,4,3,1
953.029,2,5,3,0
953.029,0,4,2,0
953.03,1,5,3,0
953.03,0,3,2,-1
953.031,0,0,0,0
953.031,0,3,2,1
953.032,4,4,2,0
953.033,2,3,1,0
953.033,0,1,1,2
953.034,0,0,0,2
953.034,3,1,2,5
953.035,7,3,2,5
953.036,6,2,1,4
953.036,5,0,-1,2
953.037,0,-2,0,5
953.037,6,3,3,7
953.038,7,7,7,6
953.038,4,4,7,5
953.039,0,1,6,4
953.04,0,0,4,5
953.04,2,1,3,4
953.041,4,2,1,3
953.041,6,4,1,2
953.042,6,4,0,3
953.042,8,5,0,1
953.043,5,3,-2,0
953.044,6,4,-2,-3
953.044,3,1,-3,-3
953.045,0,0,-1,0
953.045,0,0,0,2
953.046,5,3,0,3
953.046,7,5,1,2
953.047,5,7,4,3
953.048,9,10,6,4
953.048,8,10,5,1
953.049,2,7,4,-2
953.049,-4,1,3,-1
953.05,-2,2,4,0
953.05,0,3,5,2
953.051,1,3,4,2
953.052,1,1,0,0
953.052,0,1,0,1
953.053,3,3,2,1
953.053,3,3,2,3
953.054,3,1,1,1
953.055,2,0,0,2
953.055,1,-2,-1,2
953.056,2,-1,0,5
953.056,5,1,3,9
953.057,8,3,4,9
953.057,9,4,3,8
953.058,9,6,5,7
953.059,9,7,5,5
953.059,6,7,4,3
953.06,3,4,2,1
953.06,1,3,0,-2
953.061,-2,-1,-1,-3
953.061,-4,-4,-3,-1
953.062,-3,-6,-3,1
953.063,0,-4,-2,3
953.063,5,0,0,5
953.064,7,5,4,6
953.064,8,7,6,8
953.065,13,11,5,6
953.065,12,9,1,1
953.066,5,4,0,-2
953.066,0,1,0,-1
953.067,0,2,2,0
953.068,0,2,2,0
953.068,0,3,4,0
953.069,1,5,6,2
953.069,2,6,6,1
953.07,1,6,6,0
953.071,0,5,5,0
953.071,1,6,4,0
953.072,1,4,3,0
953.072,-2,-3,-2,0
953.073,-1,-2,-2,1
953.073,0,-1,0,3
953.074,5,1,1,5
953.075,7,4,3,7
953.075,8,5,4,6
953.076,8,4,2,4
953.076,4,0,0,2
953.077,3,0,0,2
953.077,3,2,2,3
953.078,3,2,5,4
953.079,2,2,5,4
953.079,2,3,6,4
953.08,2,4,5,4
953.08,2,6,6,2
953.081,2,5,5,2
953.081,0,-3,-2,1
953.082,1,-7,-9,2
953.083,11,3,-4,3
953.083,10,5,0,2
953.084,8,7,2,1
953.084,4,4,3,2
953.085,1,0,0,0
953.086,-1,-1,0,0
953.086,-1,0,1,2
953.087,2,2,5,6
953.087,10,10,8,8
953.088,13,14,6,2
953.088,7,11,4,0
953.089,1,5,2,-2
953.09,0,4,2,0
953.09,3,6,1,-2
953.091,0,3,0,-5
953.091,-2,0,-1,-4
953.092,-3,0,0,-1
953.092,-2,0,1,1
953.093,0,1,3,4
953.094,3,3,4,4
953.094,3,3,5,5
953.095,3,3,4,6
953.095,5,3,3,8
953.096,11,6,0,4
953.096,8,3,0,2
953.097,3,-1,-2,1
953.097,2,-2,-2,4
953.098,5,0,0,4
953.099,6,3,2,4
953.099,5,3,3,4
953.1,5,3,4,5
953.1,4,4,4,3
953.101,2,2,2,2
953.102,0,0,0,0
953.102,-1,0,1,1
953.103,0,1,3,3
953.103,3,3,4,4
953.104,4,4,4,3
953.104,3,3,2,1
953.105,1,2,1,1
953.106,3,3,2,2
953.106,4,3,1,1
953.107,3,3,2,1
953.107,2,3,2,1
953.108,3,5,4,3
953.108,5,7,6,3
953.109,5,7,5,2
953.11,3,6,4,0
953.11,1,3,2,0
953.111,0,3,2,0
953.111,0,3,3,1
953.112,2,3,1,0
953.112,0,0,0,-1
953.113,0,0,0,0
953.114,2,1,1,2
953.114,3,2,1,3
953.115,3,1,0,4
953.115,4,1,1,4
953.116,5,1,0,4
953.116,5,1,1,5
953.117,6,3,2,5
953.118,7,5,4,5
953.118,7,6,3,3
953.119,4,3,2,3
953.119,3,3,2,3
953.12,3,3,2,1
953.12,2,1,0,1
953.121,1,0,1,0
953.122,0,0,0,1
953.122,1,1,2,3
953.123,3,3,2,3
953.123,3,2,2,2
953.124,2,2,1,1
953.125,3,2,2,2
953.125,2,2,2,2
953.126,3,3,2,3
953.126,3,2,2,2
953.127,2,3,3,2
953.127,3,4,5,4
953.128,4,5,4,3
953.129,4,7,6,2
953.129,3,5,4,0
953.13,0,4,5,1
953.13,0,4,4,2
953.131,2,4,4,2
953.131,5,6,2,1
953.132,6,6,1,-1
953.133,0,1,0,-2
