Program Time [s],data 0,data 1,data 2,data 3
909.253,2,5,2,0
909.254,0,3,1,0
909.255,2,3,1,0
909.255,2,3,1,1
909.256,2,0,0,1
909.256,1,-3,-4,1
909.257,2,-4,-4,3
909.258,4,-3,-2,6
909.258,7,0,0,8
909.259,8,2,4,9
909.259,8,5,7,9
909.26,7,7,9,9
909.26,6,6,9,7
909.261,3,3,5,5
909.261,3,2,2,3
909.262,2,2,1,1
909.263,1,0,0,1
909.263,2,1,0,1
909.264,1,0,-1,2
909.264,5,2,-1,3
909.265,8,6,0,0
909.265,5,5,0,0
909.266,3,4,0,-1
909.267,2,2,0,0
909.267,0,2,0,0
909.268,0,2,2,0
909.268,0,2,3,2
909.269,3,5,5,4
909.269,5,5,5,5
909.27,4,3,2,3
909.271,5,5,3,3
909.271,6,6,4,3
909.272,6,8,6,1
909.272,3,6,4,1
909.273,1,4,2,0
909.274,0,1,1,-1
909.274,-1,0,0,-1
909.275,0,2,2,0
909.275,0,3,4,1
909.276,0,0,2,1
909.276,0,-2,0,3
909.277,1,-1,0,4
909.278,3,0,1,7
909.278,6,1,1,7
909.279,9,3,1,6
909.279,10,4,1,7
909.28,12,7,3,6
909.28,11,8,2,3
909.281,6,4,0,0
909.282,1,0,-1,0
909.282,0,-1,-1,0
909.283,-1,-1,0,0
909.283,0,0,1,2
909.284,1,0,3,4
909.284,4,4,4,5
909.285,4,4,5,4
909.286,4,3,3,2
909.286,2,1,2,4
909.287,5,4,2,4
909.287,7,4,0,2
909.288,6,4,0,0
909.289,3,3,0,0
909.289,3,3,1,1
909.29,3,5,3,1
909.29,4,8,6,2
909.291,5,9,6,1
909.291,3,6,2,-1
909.292,0,5,3,-3
909.292,-2,2,2,-2
909.293,-3,0,1,-1
909.294,-2,1,2,0
909.294,-1,1,3,3
909.295,0,1,3,4
909.295,3,2,2,5
909.296,6,4,3,7
909.297,11,7,2,6
909.297,12,8,0,1
909.298,5,2,-2,-1
909.298,1,0,-3,0
909.299,0,-4,-3,1
909.299,1,-3,-1,4
909.3,6,2,2,7
909.3,7,5,5,7
909.301,7,5,5,6
909.302,6,6,5,5
909.302,6,3,3,3
909.303,4,2,1,2
909.303,2,0,0,0
909.304,1,0,0,1
909.305,2,2,1,0
909.305,3,3,3,2
909.306,2,2,2,1
909.306,1,2,2,1
909.307,1,3,2,2
909.307,3,4,3,1
909.308,2,3,1,0
909.309,1,2,3,1
909.309,1,4,3,3
909.31,3,4,5,3
909.31,3,6,5,3
909.311,4,6,6,3
909.311,4,6,5,3
909.312,2,5,4,2
909.313,3,5,2,0
909.313,1,4,0,-1
909.314,-2,0,0,-1
909.314,0,0,2,1
909.315,2,3,2,2
909.315,3,3,2,2
909.316,4,2,1,2
909.317,3,0,0,2
909.317,2,0,0,3
909.318,4,0,0,4
909.318,4,0,0,4
909.319,3,0,0,5
909.319,5,0,2,8
909.32,9,5,5,8
909.321,8,6,5,7
909.321,8,6,4,7
909.322,10,8,2,2
909.322,4,3,0,0
909.323,0,0,-1,-1
909.324,0,0,-1,-1
909.324,0,-1,-2,-1
909.325,0,0,0,0
909.325,0,0,1,2
909.326,0,0,2,4
909.326,1,0,1,5
909.327,4,2,3,5
909.328,6,6,6,6
909.328,7,6,5,6
909.329,10,9,5,6
909.329,12,11,3,0
909.33,4,6,1,-2
909.33,0,5,3,-1
909.331,-1,2,2,-1
909.332,0,4,4,0
909.332,1,7,5,0
909.333,1,7,6,0
909.333,0,3,3,0
909.334,2,3,1,0
909.334,3,3,-2,-2
909.335,0,-1,-5,-2
909.336,1,-2,-3,0
909.336,3,2,1,3
909.337,4,3,2,4
909.337,3,0,2,4
909.338,4,0,2,5
909.339,4,2,3,5
909.339,4,1,2,7
909.34,6,0,1,7
909.34,8,3,3,8
909.341,8,4,3,5
909.341,7,4,3,4
909.342,3,2,3,3
909.342,2,0,1,2
909.343,2,1,1,3
909.344,2,1,0,2
909.344,3,3,2,2
909.345,3,4,3,2
909.345,3,3,2,0
909.346,0,1,0,0
909.346,0,0,0,0
909.347,1,1,0,0
909.348,3,4,2,3
909.348,5,4,2,2
909.349,5,5,2,2
909.349,4,6,3,2
909.35,4,6,5,3
909.35,4,7,7,3
909.351,2,5,6,3
909.352,0,4,5,1
909.352,-1,2,3,0
909.353,-1,1,2,0
909.353,0,1,2,1
909.354,0,3,2,1
909.354,2,2,1,3
909.355,9,9,4,3
909.356,10,10,1,-1
909.356,3,3,-1,-3
909.357,0,0,-1,-1
909.357,0,0,-1,0
909.358,2,0,0,1
909.359,1,-1,-1,2
909.359,3,-2,-2,5
909.36,8,1,0,7
909.36,11,7,5,7
909.361,8,4,3,5
909.361,4,3,4,5
909.362,5,3,4,5
909.363,4,3,2,2
909.363,2,1,0,0
909.364,0,0,0,1
909.364,0,0,1,2
909.365,2,-1,0,3
909.365,4,0,0,3
909.366,4,1,0,3
909.367,4,2,1,4
909.367,5,4,3,5
909.368,6,5,4,4
909.368,5,5,4,4
909.369,4,5,5,4
909.369,6,7,6,4
909.37,7,8,6,2
909.371,3,8,5,0
909.371,0,4,3,-1
909.372,-1,3,1,-4
909.372,-3,1,0,-3
909.373,-2,1,0,-2
909.373,0,2,1,0
909.374,0,3,1,1
909.375,4,4,2,1
909.375,3,3,1,0
909.376,2,1,1,3
909.376,3,1,0,3
909.377,4,1,1,4
909.378,5,1,0,4
909.378,4,0,0,4
909.379,5,1,0,5
909.379,5,1,2,6
909.38,5,4,6,6
909.38,4,4,5,6
909.381,2,2,5,4
909.382,1,3,6,5
909.382,1,1,4,3
909.383,0,-1,1,3
909.383,2,0,0,3
909.384,5,1,0,5
909.384,12,7,0,5
909.385,17,11,-1,1
909.385,12,7,-5,-4
909.386,3,2,-5,-4
909.387,2,2,-2,-2
909.387,3,5,0,-2
909.388,2,3,0,-2
909.388,0,0,0,0
909.389,0,3,4,3
909.39,1,4,4,2
909.39,1,3,5,2
909.391,2,7,8,5
909.391,4,9,8,5
909.392,4,9,10,4
909.392,2,6,7,0
909.393,-1,1,2,0
909.394,-3,0,0,0
909.394,0,0,0,0
909.395,1,1,1,2
909.395,2,1,1,2
909.396,2,1,0,3
909.396,3,0,0,4
909.397,5,1,0,5
909.398,6,3,2,5
909.398,5,0,0,4
909.399,4,-1,0,4
909.399,6,3,3,6
909.4,6,5,6,8
909.4,6,5,6,5
909.401,1,0,2,4
909.402,3,1,2,4
909.402,2,0,1,2
909.403,1,0,0,2
909.403,2,1,1,2
909.404,3,3,2,2
909.405,4,4,3,2
909.405,4,4,2,1
909.406,3,3,1,0
909.406,1,1,0,0
909.407,1,0,1,1
909.407,1,1,1,2
909.408,3,2,2,3
909.409,3,3,3,4
909.409,4,4,4,5
909.41,9,8,5,6
909.41,14,12,5,2
909.411,8,10,3,-2
909.411,0,3,0,-3
909.412,-2,1,0,-3
909.412,-1,2,1,-2
909.413,-2,1,2,0
909.414,0,3,3,0
909.414,2,4,4,2
909.415,2,3,3,3
909.415,6,6,4,3
909.416,6,5,1,0
909.417,0,0,-1,-1
909.417,0,-2,-1,1
909.418,1,-1,0,3
909.418,2,-1,0,4
909.419,4,0,2,6
909.419,7,5,6,8
909.42,8,9,9,8
909.421,6,7,8,4
909.421,2,2,4,2
909.422,2,3,3,2
909.422,2,3,2,0
909.423,0,1,0,0
909.423,1,1,0,0
909.424,3,2,-1,0
909.425,2,-1,-4,0
909.425,5,0,-3,1
909.426,6,1,-2,2
909.426,6,2,0,3
909.427,5,1,0,3
909.427,2,-1,-1,3
909.428,2,-1,0,5
909.429,5,2,4,8
909.429,8,7,7,7
909.43,7,8,8,4
909.43,5,10,9,3
909.431,1,9,9,2
909.431,0,7,8,0
909.432,0,3,3,0
909.433,0,3,1,-1
909.433,-1,1,0,-2
909.434,-1,0,0,0
909.434,0,1,1,1
909.435,5,6,2,0
909.436,2,3,0,0
909.436,1,0,0,0
909.437,1,-1,0,3
909.437,4,1,0,3
909.438,4,0,0,3
909.438,4,0,0,4
909.439,4,1,1,7
909.44,7,4,4,9
909.44,12,8,5,6
909.441,9,7,3,3
909.441,2,2,2,2
909.442,1,0,0,2
909.442,3,2,1,3
909.443,7,5,0,0
909.444,3,3,0,-1
909.444,1,2,1,0
909.445,0,2,2,1
909.445,0,0,0,0
909.446,-1,-2,0,0
909.446,0,0,0,3
909.447,3,3,2,5
909.448,8,4,0,6
909.448,10,3,-1,3
909.449,9,6,0,2
909.449,8,10,5,3
909.45,8,12,9,4
909.45,6,11,10,4
909.451,2,7,6,0
909.452,-1,4,3,-4
909.452,-5,1,2,-4
909.453,-5,2,2,-2
909.453,-4,0,2,0
909.454,-2,-2,-1,0
909.454,0,-2,-1,2
909.455,3,1,1,3
909.456,6,5,4,6
909.456,8,8,6,7
909.457,6,5,5,5
909.457,2,0,0,1
909.458,0,-3,-2,1
909.458,1,-1,0,5
909.459,5,1,2,7
909.46,8,6,5,8
909.46,7,3,3,5
909.461,4,1,0,3
909.461,3,1,2,4
909.462,4,2,2,4
909.462,4,3,2,3
909.463,4,4,2,3
909.464,4,3,1,2
909.464,4,3,1,1
909.465,3,2,0,1
909.465,4,2,0,0
909.466,3,1,-1,0
909.466,2,1,0,0
909.467,2,1,0,1
909.468,2,2,1,1
909.468,3,3,2,2
909.469,1,0,1,3
909.469,2,1,3,5
909.47,5,5,5,5
909.471,4,6,7,4
909.471,4,6,7,4
909.472,4,8,9,4
909.472,2,6,6,1
909.473,2,5,3,0
909.473,1,3,1,0
909.474,4,5,0,0
909.475,7,7,-1,-2
909.475,3,4,0,-4
909.476,0,1,-1,-3
909.476,-3,-1,-2,-4
909.477,-5,-5,-2,-1
909.477,-2,-3,0,4
909.478,1,-1,2,8
909.479,5,1,4,8
909.479,6,1,4,9
909.48,9,6,8,10
909.48,9,7,8,9
909.481,8,6,6,8
909.481,8,6,3,5
909.482,8,4,0,0
909.483,4,1,-3,-1
909.483,0,0,-2,0
909.484,1,1,0,0
909.484,1,2,0,0
909.485,-1,0,0,0
909.485,0,-1,0,1
909.486,2,1,1,4
909.487,4,3,3,6
909.487,7,7,4,6
909.488,10,9,4,3
909.488,6,5,2,2
909.489,4,5,2,1
909.489,3,3,0,0
909.49,2,3,1,-1
909.491,0,5,3,0
909.491,0,4,4,0
909.492,1,5,6,1
909.492,0,2,3,1
909.493,-1,0,1,0
909.493,0,0,1,1
909.494,1,3,3,4
909.495,6,6,5,5
909.495,8,8,4,5
909.496,9,6,1,0
909.496,3,1,-1,-3
909.497,-1,0,0,0
909.497,-2,-2,0,0
909.498,-5,-10,-3,1
909.499,-2,-6,0,6
909.499,2,-2,4,10
909.5,6,3,10,13
909.5,8,6,11,15
909.501,14,10,9,13
909.502,17,13,5,6
909.502,12,9,1,1
909.503,9,6,-2,0
909.503,8,7,-4,-6
909.504,4,5,-5,-10
909.504,-6,-4,-8,-11
909.505,-9,-6,-4,-5
909.506,-6,-7,-5,-1
909.506,-2,-4,-1,3
909.507,3,1,3,6
909.507,6,4,6,9
909.508,10,8,8,9
909.508,8,7,6,7
909.509,6,6,5,6
909.51,7,7,6,4
909.51,6,7,6,4
909.511,4,6,5,2
909.511,3,6,5,1
909.512,2,6,4,0
909.512,0,5,3,-1
909.513,0,3,2,-1
909.514,-1,2,1,-1
909.514,0,0,0,-1
909.515,-1,-1,-1,-1
909.515,0,0,0,0
909.516,0,0,0,2
909.516,2,0,1,4
909.517,2,0,1,5
909.518,4,0,0,4
909.518,5,1,2,7
909.519,8,5,5,8
909.519,9,7,6,9
909.52,10,8,7,6
909.521,6,5,3,3
909.521,2,1,1,1
909.522,2,1,0,2
909.522,2,1,0,0
909.523,2,2,0,0
909.523,0,0,-1,0
909.524,0,0,0,0
909.525,2,1,2,3
909.525,3,2,2,3
909.526,2,1,1,2
909.526,3,2,1,2
909.527,3,2,1,3
909.527,4,3,2,3
909.528,5,4,3,4
909.529,6,4,3,3
909.529,5,4,3,3
909.53,6,6,3,3
909.53,7,8,4,2
909.531,5,8,4,0
909.531,3,7,4,0
909.532,1,5,2,-2
909.532,0,4,2,-1
909.533,-1,2,2,-1
909.534,-1,1,3,0
909.534,0,0,1,1
909.535,0,1,3,1
909.535,1,2,3,2
909.536,3,3,1,2
909.536,5,3,1,0
909.537,1,-1,-2,0
909.538,0,-3,-2,3
909.538,2,-2,-1,5
909.539,5,0,0,7
909.539,8,5,5,9
909.54,9,7,9,9
909.541,9,8,8,8
909.541,6,5,4,4
909.542,4,1,0,1
909.542,1,1,0,0
909.543,2,3,0,0
909.543,1,2,1,1
909.544,0,-1,-1,0
909.545,0,-2,-2,1
909.545,3,1,0,1
909.546,4,5,3,3
909.546,4,4,3,3
909.547,3,3,2,2
909.547,2,1,1,2
909.548,3,0,0,2
909.549,4,3,2,4
909.549,5,5,4,5
909.55,7,8,6,4
909.55,7,8,6,2
909.551,3,7,5,0
909.551,0,6,5,-1
909.552,0,4,4,0
909.553,-2,1,2,0
909.553,0,2,0,2
909.554,7,7,0,0
909.554,6,6,-1,-2
909.555,1,1,-1,-1
909.556,2,1,-1,0
909.556,1,0,-2,-2
909.557,-2,-2,-1,0
909.557,1,0,1,5
909.558,5,1,3,7
909.558,7,2,2,7
909.559,6,1,2,6
909.56,6,2,4,5
909.56,4,4,5,5
909.561,3,3,5,5
909.561,4,4,7,6
909.562,3,3,4,3
909.562,1,0,2,2
909.563,1,1,1,2
909.564,3,3,2,5
909.564,10,8,3,4
909.565,10,8,0,-1
909.565,1,0,-4,-4
909.566,-2,-2,-3,-3
909.566,-1,-1,-2,-1
909.567,0,0,1,2
909.568,2,2,2,3
909.568,3,4,4,5
909.569,5,4,5,6
909.569,7,7,5,5
909.57,6,6,4,4
909.57,7,9,6,4
909.571,5,8,5,2
909.572,3,7,4,-1
909.572,0,5,2,-1
909.573,0,2,0,-2
909.573,-1,0,-1,-2
909.574,-2,-4,-3,0
909.574,0,0,1,1
909.575,4,5,5,3
909.576,3,3,3,3
909.576,3,3,2,2
909.577,1,0,0,3
909.577,2,-1,0,4
909.578,3,0,0,4
909.578,5,1,3,7
909.579,7,6,6,9
909.58,9,9,8,9
909.58,8,7,4,3
909.581,2,1,0,0
909.581,1,0,0,0
909.582,0,0,-1,1
909.582,3,1,0,2
909.583,3,1,0,0
909.584,0,0,0,1
909.584,2,3,2,2
909.585,3,5,4,3
909.585,4,5,5,2
909.586,3,5,4,1
909.586,0,1,1,0
909.587,1,0,0,1
909.588,1,0,0,2
909.588,2,-1,0,5
909.589,6,3,3,6
909.589,7,6,5,6
909.59,7,8,6,5
909.591,9,11,7,5
909.591,11,12,4,0
909.592,5,9,2,-3
909.592,0,3,0,-5
909.593,-3,0,-2,-5
909.593,-3,0,0,-2
909.594,0,0,0,0
909.594,1,3,1,1
909.595,2,3,2,1
909.596,2,2,0,1
909.596,2,1,1,2
909.597,3,0,0,5
909.597,5,0,1,5
909.598,5,0,0,5
909.599,4,0,0,5
909.599,4,0,1,7
909.6,5,2,6,7
909.6,4,4,7,8
909.601,3,3,7,7
909.601,2,4,7,5
909.602,2,2,5,5
909.603,2,0,0,5
909.603,7,3,0,4
909.604,9,6,0,3
909.604,11,7,-1,1
909.605,13,10,0,-3
909.606,4,2,-5,-7
909.606,-4,-3,-7,-7
909.607,-4,-3,-3,-3
909.607,-1,0,0,0
909.608,2,2,3,4
909.608,6,7,6,6
909.609,7,10,8,5
909.609,8,10,8,4
909.61,5,9,6,1
909.611,2,6,5,-1
909.611,0,2,2,-1
909.612,-2,1,2,0
909.612,0,0,2,1
909.613,0,0,1,1
909.614,0,0,2,2
909.614,1,1,4,5
909.615,3,2,5,8
909.615,7,4,4,6
909.616,6,3,0,4
909.616,6,3,0,1
909.617,4,1,0,2
909.617,3,0,0,3
909.618,3,-2,-1,3
909.619,3,-1,0,4
909.619,4,2,3,6
909.62,7,5,6,6
909.62,5,5,5,6
909.621,3,2,3,3
909.622,3,2,3,2
909.622,2,2,2,2
909.623,1,2,2,1
909.623,0,0,2,2
909.624,0,0,1,2
909.624,1,0,1,2
909.625,2,0,0,2
909.626,4,3,2,4
909.626,7,6,5,7
909.627,12,9,2,4
909.627,11,6,-2,-1
909.628,4,1,-5,-3
909.628,3,3,0,1
909.629,4,4,1,0
909.63,2,4,3,0
909.63,1,5,5,0
909.631,0,4,6,0
909.631,-1,3,6,0
909.632,-2,2,5,0
909.632,-1,3,6,1
909.633,0,5,6,2
909.634,0,2,4,2
909.634,1,2,3,7
909.635,12,10,2,4
909.635,12,7,-1,-2
909.636,1,0,-4,-2
909.637,0,-1,-1,2
909.637,4,0,-2,3
909.638,6,2,-2,1
909.638,3,0,-1,3
909.639,6,3,2,6
909.639,8,5,4,6
909.64,7,4,2,3
909.641,4,2,0,1
909.641,1,0,0,2
909.642,4,3,4,4
909.642,6,7,6,3
909.643,2,4,3,0
909.643,-1,0,1,0
909.644,-1,0,1,1
909.645,2,2,3,3
909.645,3,3,3,3
909.646,2,1,1,1
909.646,0,-2,-2,1
909.647,2,-1,0,4
909.648,7,4,3,6
909.648,9,6,4,5
909.648,7,5,3,3
909.649,5,7,5,3
909.65,5,8,7,3
909.65,4,7,5,0
909.651,0,4,3,0
909.651,-1,2,3,-1
909.652,-1,3,4,0
909.653,0,4,4,0
909.653,0,4,4,0
909.654,0,3,2,0
909.654,0,3,2,0
909.655,1,2,1,1
909.655,1,0,0,1
909.656,1,0,-1,2
909.657,4,1,0,4
909.657,5,2,1,4
909.658,4,-1,-2,5
909.658,6,0,-1,6
909.659,8,2,0,7
909.659,10,8,5,8
909.66,8,6,6,5
909.661,4,4,2,3
909.661,2,1,1,3
909.662,2,0,0,1
909.662,2,0,0,1
909.663,3,3,1,2
909.663,4,4,3,2
909.664,4,4,2,1
909.665,3,3,1,0
909.665,1,0,0,-1
909.666,0,0,0,0
909.666,1,1,1,1
909.667,1,0,1,3
909.668,2,1,2,4
909.668,3,2,3,4
909.669,5,5,6,5
909.669,7,7,6,6
909.67,8,9,6,4
909.67,6,8,5,1
909.671,2,6,3,0
909.671,0,4,3,0
909.672,0,4,3,0
909.673,2,5,3,0
909.673,2,5,2,-1
909.674,1,3,0,-3
909.674,0,1,0,-1
909.675,0,1,0,0
909.675,1,2,0,1
909.676,2,1,0,1
909.677,2,1,0,2
909.677,3,0,0,4
909.678,3,0,0,4
909.678,4,0,0,6
909.679,6,1,3,8
909.68,8,6,5,8
909.68,9,7,6,7
909.681,7,4,4,5
909.681,4,3,2,3
909.682,2,0,0,1
909.682,1,0,0,0
909.683,1,1,0,1
909.684,2,2,1,2
909.684,3,3,2,1
909.685,2,2,0,1
909.685,2,1,0,1
909.686,2,1,0,2
909.686,4,3,1,2
909.687,5,4,1,1
909.688,4,2,0,1
909.688,2,1,1,2
909.689,4,5,4,4
909.689,5,6,5,4
909.69,6,8,6,3
909.69,5,8,6,1
909.691,2,5,4,0
909.692,0,4,3,0
909.692,0,2,2,0
909.693,0,1,2,0
909.693,0,1,0,0
909.694,0,1,1,1
909.694,2,3,2,1
909.695,2,3,3,2
909.696,3,3,2,3
909.696,5,4,1,1
909.697,2,0,-1,1
909.697,0,-2,-1,2
909.698,1,-1,0,5
909.698,4,0,2,8
909.699,10,5,3,9
909.7,15,12,6,7
909.7,10,9,3,2
909.701,3,2,0,0
909.701,0,0,0,0
909.702,0,0,-1,0
909.703,2,1,0,2
909.703,5,3,0,3
909.704,5,4,1,0
909.704,2,1,0,0
909.705,1,0,0,1
909.705,0,0,1,1
909.706,3,2,1,3
909.706,4,4,3,3
909.707,3,2,0,2
909.708,2,0,0,1
909.708,2,1,2,4
909.709,5,5,6,7
909.709,7,6,7,6
909.71,6,7,7,4
909.711,6,10,8,2
909.711,3,9,7,0
909.712,0,6,5,-2
909.712,-1,3,3,-2
909.713,-1,2,1,-1
909.713,0,0,-1,0
909.714,0,0,0,-1
909.715,0,1,1,0
909.715,0,1,1,1
909.716,0,-1,0,4
909.716,3,0,0,4
909.717,5,2,1,4
909.717,5,1,1,5
909.718,5,0,0,5
909.719,6,0,0,6
909.719,9,4,3,8
909.72,11,8,6,9
909.72,14,11,5,4
909.721,7,7,3,0
909.721,0,2,1,-1
909.722,-4,-2,-2,-3
909.723,-4,-3,-1,0
909.723,-2,-4,-2,1
909.724,2,0,0,4
909.724,6,5,4,5
909.725,5,5,5,6
909.725,8,5,2,5
909.726,10,8,1,0
909.727,3,3,1,0
909.727,0,0,0,1
909.728,0,0,0,0
909.728,1,0,0,1
909.729,2,4,3,3
909.729,5,8,6,6
909.73,9,12,10,5
909.731,8,11,6,0
909.731,1,5,3,-2
909.732,-1,3,4,0
909.732,-1,2,3,0
909.733,-1,1,2,0
909.734,-1,-2,-1,-1
909.734,0,0,0,0
909.735,0,2,3,3
909.735,4,4,3,3
909.736,3,2,2,3
909.736,3,0,1,3
909.737,1,-1,0,2
909.738,-1,-6,-2,4
909.738,2,-2,0,8
909.739,10,5,4,12
909.739,17,13,7,9
909.741,14,12,6,4
909.741,6,5,2,1
909.741,2,2,0,-1
909.742,0,0,-1,-3
909.742,-1,0,0,-3
909.743,-4,0,0,-2
909.743,-7,-5,0,1
909.744,-4,-5,0,4
909.744,1,0,3,7
909.745,5,3,6,9
909.746,7,6,7,9
909.746,9,6,5,9
909.747,12,7,0,7
909.747,17,9,-3,0
909.748,11,5,-5,-3
909.748,2,1,-3,-1
909.749,1,0,-2,-1
909.75,1,2,1,0
909.75,2,6,5,0
909.751,1,8,8,1
909.751,2,8,7,3
909.752,2,7,6,0
909.753,0,3,2,-1
909.753,-1,0,0,0
909.754,0,3,2,0
909.754,2,5,3,2
909.755,4,4,2,0
909.755,1,1,0,0
909.756,0,-1,-2,-1
909.756,0,-2,-1,1
909.757,2,0,1,4
909.758,4,2,3,6
909.758,5,1,3,6
909.759,5,1,2,6
909.759,6,4,5,7
909.76,8,7,7,8
909.76,8,7,6,7
909.761,7,5,4,4
909.762,3,2,0,0
909.762,1,1,0,0
909.763,1,1,0,0
909.763,2,2,1,0
909.764,1,1,0,0
909.765,1,1,0,0
909.765,1,0,0,1
909.766,1,2,1,2
909.766,4,3,2,3
909.767,3,3,2,3
909.767,2,2,2,2
909.768,3,3,2,3
909.769,3,3,3,4
909.769,4,5,5,4
909.77,5,6,6,4
909.77,5,8,6,3
909.771,4,7,5,1
909.771,2,5,5,0
909.772,0,4,3,-1
909.773,-1,2,2,0
909.773,-1,1,1,0
909.774,0,0,0,0
909.774,0,1,1,1
909.775,1,1,2,2
909.775,2,1,2,4
909.776,6,3,1,4
909.777,7,2,0,1
909.777,3,1,-1,3
909.778,4,0,0,3
909.778,5,1,1,5
909.779,7,2,2,5
909.779,6,5,3,5
909.78,7,6,3,5
909.781,7,5,2,2
909.781,4,3,2,2
909.782,3,3,1,1
909.782,2,1,0,0
909.783,1,1,0,0
909.784,-1,1,2,0
909.784,0,0,2,1
909.785,1,0,2,3
909.785,1,0,1,3
909.786,1,-1,0,3
909.786,2,-1,0,4
909.787,4,1,2,6
909.787,7,5,4,7
909.788,7,7,5,6
909.789,8,8,6,4
909.789,5,6,5,2
909.79,1,4,3,1
909.79,1,3,2,2
909.791,5,6,3,2
909.792,6,8,2,0
909.792,3,7,2,0
909.793,5,9,3,-2
909.793,2,5,0,-6
909.794,-4,0,0,-5
909.794,-5,-1,0,-3
909.795,-4,-1,0,0
909.796,-1,0,1,2
909.796,3,1,2,5
909.797,5,2,3,7
909.797,7,3,2,6
909.798,7,3,2,6
909.798,6,1,0,5
909.799,6,1,0,6
909.8,7,4,4,7
909.8,7,5,4,5
909.801,5,3,2,3
909.801,4,2,2,2
909.803,2,1,1,2
909.803,2,1,0,1
909.803,1,0,1,1
909.804,2,3,3,2
909.804,3,6,5,2
909.805,1,5,4,1
909.805,0,2,2,0
909.806,0,0,0,1
909.806,0,0,0,2
909.807,4,1,0,5
909.808,11,7,0,3
909.808,8,5,0,1
909.809,3,0,-2,0
909.809,2,0,0,1
909.81,3,4,4,5
909.81,4,5,7,4
909.811,5,8,9,5
909.812,5,9,9,3
909.812,4,9,8,1
909.813,0,4,3,-2
909.813,-4,0,0,-3
909.814,-2,0,0,0
909.814,2,3,2,1
909.815,2,2,0,0
909.816,-1,-3,-2,0
909.816,0,-5,-3,2
909.817,2,0,1,7
909.817,9,6,5,7
909.818,9,4,3,6
909.818,8,5,3,6
909.819,8,6,3,5
909.82,7,6,3,2
909.82,4,5,3,0
909.821,1,2,1,1
909.821,0,0,-1,0
909.822,1,0,-1,0
909.823,3,2,1,2
909.823,4,4,1,0
909.824,2,2,1,1
909.824,0,-1,0,2
909.825,3,0,0,3
909.825,5,1,0,2
909.826,5,3,1,3
909.827,4,3,2,3
909.827,5,5,5,6
909.828,6,5,3,3
909.828,5,4,2,1
909.829,3,5,2,1
909.829,3,4,3,2
909.83,6,8,6,3
909.831,5,7,4,1
909.831,2,4,1,-3
909.832,-1,2,1,-2
909.832,0,3,3,0
909.833,1,5,4,1
909.833,1,3,3,0
909.834,-1,0,0,0
909.835,0,0,1,0
909.835,1,1,2,3
909.836,2,2,3,4
909.836,4,2,2,4
909.837,4,1,1,3
909.837,3,1,0,4
909.838,4,0,0,5
909.839,7,2,1,6
909.839,7,4,3,5
909.84,6,3,2,4
909.84,5,2,2,4
909.841,4,2,2,4
909.841,5,4,2,3
909.842,5,3,2,2
909.843,3,3,1,1
909.843,3,1,0,0
909.844,2,2,1,1
909.844,1,1,0,0
909.845,0,0,0,0
909.845,0,0,0,0
909.846,0,0,1,2
909.847,2,2,3,4
909.847,3,1,4,6
909.848,5,3,3,8
909.848,12,8,4,5
909.849,10,10,5,2
909.849,6,8,5,1
909.85,4,9,5,0
909.851,1,7,3,-1
909.851,0,4,1,-3
909.852,0,6,2,-2
909.852,0,5,3,-2
909.853,-2,3,2,-2
909.854,-2,-1,0,-2
909.854,-3,-4,-2,1
909.855,0,-3,0,4
909.855,3,1,4,7
909.856,6,3,4,7
909.856,6,3,4,9
909.857,9,4,3,8
909.858,9,4,2,4
909.858,4,0,0,2
909.859,3,0,0,3
909.859,5,5,5,5
909.86,5,4,4,3
909.86,3,1,1,2
909.861,2,1,1,1
909.862,2,2,1,2
909.862,5,5,3,3
909.863,8,8,3,3
909.863,7,7,3,0
909.864,1,0,0,-2
909.864,-3,-4,-4,-3
909.865,-4,-7,-6,-1
909.866,-1,-5,-5,2
909.866,6,1,0,6
909.867,9,6,3,7
909.867,11,7,3,5
909.868,9,8,4,4
909.868,6,7,5,3
909.869,3,6,5,3
909.87,2,4,5,1
909.87,1,5,6,2
909.871,2,5,6,2
909.871,2,6,5,0
909.872,-2,1,2,0
909.872,-3,-1,1,0
909.873,0,1,2,2
909.874,4,5,4,2
909.874,5,8,6,1
909.875,2,6,4,0
909.875,0,1,1,0
909.876,-3,-2,-1,-1
909.876,-2,-2,0,1
909.877,0,-1,1,5
909.878,3,0,2,7
909.878,4,-2,0,9
909.879,9,1,0,10
909.879,18,12,4,10
909.88,18,13,4,4
909.881,8,6,1,0
909.881,2,3,0,0
909.882,0,1,-1,-3
909.882,-2,-2,-2,-3
909.883,-2,-1,-1,-1
909.883,0,0,1,2
909.884,5,5,3,4
909.885,5,4,2,2
909.885,3,1,0,1
909.886,1,0,-1,1
909.886,4,2,1,4
909.887,7,6,4,5
909.887,7,6,4,4
909.888,3,2,1,1
909.889,3,2,2,3
909.889,5,5,3,4
909.89,6,7,6,3
909.89,4,6,4,1
909.891,2,5,3,0
909.891,0,4,3,-1
909.892,0,6,6,0
909.893,0,4,5,0
909.893,0,3,4,0
909.894,0,2,3,0
909.894,-1,1,3,1
909.895,0,1,2,1
909.895,1,0,2,3
909.896,3,2,2,4
909.897,4,2,0,4
909.897,4,0,0,3
909.898,4,0,0,4
909.898,4,0,0,5
909.899,6,2,1,6
909.899,8,6,3,6
909.9,8,4,2,5
909.901,6,1,0,2
909.901,4,2,0,1
909.902,3,2,0,0
909.902,1,1,0,0
909.903,0,0,0,2
909.903,3,1,0,2
909.904,5,5,2,3
909.905,5,6,3,2
909.905,2,3,3,1
909.906,1,1,2,2
909.906,1,0,1,3
909.907,1,-1,-1,4
909.907,6,4,3,4
909.908,8,8,5,5
909.909,6,7,4,4
909.909,5,5,3,1
909.91,5,7,3,1
909.91,3,5,3,0
909.911,2,5,2,-1
909.911,0,3,2,0
909.912,2,5,3,0
909.913,1,5,3,0
909.913,0,2,1,-1
909.914,-1,-2,-2,-1
909.914,-1,-3,-1,1
909.915,0,-2,-2,3
909.916,4,1,0,5
909.916,8,6,5,5
909.917,7,8,7,7
909.917,6,6,7,7
909.918,4,0,-1,3
909.918,2,-6,-7,2
909.919,5,0,-1,4
909.92,8,7,5,6
909.92,9,12,9,5
909.921,5,9,6,2
909.921,0,0,-2,-5
909.922,-7,-7,-4,-4
909.922,-6,-7,-1,2
909.923,2,0,4,9
909.924,9,8,9,11
909.924,10,7,5,7
909.925,8,7,4,3
909.925,5,6,3,0
909.926,0,2,1,0
909.928,0,1,0,1
909.928,5,6,0,0
909.928,3,2,-1,-2
909.928,0,1,0,0
909.929,0,0,2,1
909.929,1,2,4,5
909.93,5,5,4,6
909.93,9,9,4,2
909.931,6,8,4,0
909.932,3,8,5,-1
909.932,1,5,3,-1
909.933,0,3,2,-1
909.933,-1,0,0,-1
909.934,-1,-2,-1,1
909.935,0,-2,-1,2
909.935,4,-1,-1,3
909.936,5,0,0,4
909.936,5,1,1,6
909.937,8,3,1,5
909.937,5,0,0,4
909.938,3,-2,0,6
909.939,6,0,0,7
909.939,11,9,6,8
909.94,14,14,8,7
909.94,13,14,7,3
909.941,8,10,5,2
909.941,4,8,4,1
909.942,2,3,-1,-5
909.943,-3,0,-1,-7
909.943,-8,-3,0,-7
909.944,-11,-4,0,-6
909.944,-11,-4,4,0
909.945,-5,0,6,3
909.945,-3,0,6,7
909.946,2,1,6,9
909.947,9,6,7,10
909.947,9,6,7,9
909.948,6,2,3,5
909.948,3,1,2,4
909.949,4,1,2,3
909.949,2,2,1,1
909.95,4,6,2,4
909.951,10,10,4,2
909.951,6,6,0,-1
909.952,2,4,0,0
909.952,5,6,1,0
909.953,3,6,1,0
909.953,3,4,2,2
909.954,5,4,0,1
909.955,2,-1,-6,-5
909.955,-3,-7,-10,-5
909.956,-4,-8,-7,-2
909.956,-2,-4,0,5
909.957,5,2,7,11
909.957,8,5,9,14
909.958,11,4,3,9
909.959,11,4,0,6
909.959,12,10,4,5
909.96,11,13,6,2
909.96,4,7,1,-2
909.961,0,1,0,0
909.961,0,-5,-6,1
909.962,4,-4,-8,2
909.963,10,0,-6,3
909.963,13,7,-2,2
909.964,12,11,3,0
909.964,5,8,4,0
909.965,0,2,4,3
909.966,2,6,13,9
909.966,3,9,16,10
909.967,-2,-3,7,6
909.967,-8,-13,-1,3
909.968,-9,-16,-3,5
909.968,-1,-5,1,5
909.969,2,4,7,6
909.969,5,9,11,7
909.97,9,15,11,1
909.971,4,13,8,-6
909.971,-5,8,5,-8
909.972,-3,10,5,-5
909.972,4,14,5,-1
909.973,7,9,-4,-6
909.974,4,3,-10,-12
909.974,-1,0,-8,-11
909.975,-3,1,-1,-5
909.975,0,7,3,-1
909.976,0,4,2,0
909.976,1,2,2,5
909.977,4,0,-1,3
909.978,2,-5,-7,2
909.978,5,1,3,8
909.979,10,14,19,18
909.979,18,30,37,27
909.98,17,25,32,21
909.98,7,11,19,10
909.981,-5,-3,4,-3
909.982,-19,-20,-9,-11
909.982,-24,-28,-18,-13
909.983,-21,-31,-25,-13
909.983,-17,-29,-25,-6
909.984,-4,-21,-20,3
909.984,7,-14,-17,9
909.985,22,1,-7,18
909.986,33,14,0,16
909.986,33,17,2,19
909.987,40,32,17,23
909.987,36,33,22,19
909.988,21,17,13,9
909.988,8,10,8,3
909.989,2,11,13,3
909.99,5,18,18,3
909.99,1,13,10,-9
909.991,-13,3,0,-21
909.991,-22,0,0,-25
909.992,-26,-3,-3,-22
909.992,-23,-13,-13,-19
909.993,-18,-16,-14,-10
909.994,-3,3,6,3
909.994,6,17,21,14
909.995,8,12,15,10
909.995,2,0,1,3
909.996,3,-1,-4,2
909.997,7,2,-3,0
909.997,1,-9,-14,-3
909.998,0,-15,-21,-2
909.998,11,0,-7,11
909.999,26,15,6,18
909.999,28,21,13,17
910,22,22,19,15
910.001,14,22,30,19
910.001,3,12,31,19
910.002,-7,-5,16,10
910.002,-17,-19,0,-3
910.003,-23,-25,-15,-18
910.003,-29,-30,-23,-20
910.004,-25,-22,-10,-4
910.005,-13,-17,-4,7
910.005,-2,-12,0,17
910.006,12,2,9,25
910.006,23,7,8,19
910.007,24,13,6,13
910.008,24,21,10,11
910.008,25,26,13,11
910.009,21,21,7,4
910.009,16,13,-5,-6
910.01,13,16,-4,-10
910.01,11,21,-4,-18
910.011,5,24,0,-20
910.011,0,19,0,-20
910.012,-5,9,-5,-18
910.013,-10,-6,-14,-17
910.013,-16,-13,-6,0
910.014,-7,-12,5,15
910.014,-2,-14,6,20
910.015,4,-5,16,29
910.015,13,5,23,29
910.016,5,-7,6,11
910.017,-4,-12,-2,-1
910.017,-7,-3,4,2
910.018,-3,-2,-1,0
910.018,-1,-2,-2,-4
910.019,-3,0,2,0
910.02,0,4,3,3
910.02,8,8,1,3
910.021,11,5,-5,0
910.021,10,2,-11,-4
910.022,13,9,-7,-4
910.022,13,13,-2,-5
910.023,11,18,7,3
910.023,16,24,19,15
910.024,21,28,25,13
910.025,10,15,11,1
910.025,-4,-8,-14,-13
910.026,-9,-10,-15,-15
910.026,-8,-2,-2,-4
910.027,-6,-3,4,4
910.028,-8,-12,1,7
910.028,-5,-10,0,5
910.029,0,1,12,12
910.029,4,13,29,25
910.03,7,10,24,18
910.03,0,-3,4,2
910.031,-7,-6,0,-1
910.032,-6,-3,2,0
910.032,-6,-7,-7,-9
910.033,-8,-5,-10,-12
910.033,-3,4,-1,-1
910.034,9,14,5,4
910.034,16,14,0,0
910.035,12,8,-8,-5
910.036,4,-3,-14,-7
910.036,6,1,-4,6
910.037,17,12,8,19
910.037,21,9,6,18
910.038,17,-2,-5,13
910.038,14,-4,-6,9
910.039,16,6,6,16
910.04,17,10,12,21
910.04,18,9,10,14
910.041,9,4,8,5
910.041,-1,0,7,3
910.042,-8,-11,-5,-4
910.042,-12,-22,-25,-16
910.043,-10,-19,-31,-22
910.044,-5,-7,-22,-20
910.044,-1,0,-11,-7
910.045,7,2,-11,-5
910.045,12,7,-11,-5
910.046,17,23,8,3
910.047,18,27,12,3
910.047,16,30,25,14
910.048,17,27,29,19
910.048,15,23,27,18
910.049,8,8,9,1
910.049,-5,-3,0,-5
910.05,-10,-11,-13,-15
910.051,-8,-6,-16,-20
910.051,-6,3,-6,-14
910.052,-2,9,1,-8
910.052,4,22,20,3
910.053,2,26,41,19
910.053,-1,15,36,15
910.054,-11,0,19,1
910.055,-17,-1,21,6
910.055,-22,-20,0,-6
910.056,-30,-32,-10,-7
910.056,-22,-19,0,5
910.057,-6,-11,-3,6
910.057,1,-13,-11,10
910.058,14,-10,-15,15
910.059,28,6,-3,19
910.059,35,21,6,15
910.06,28,19,0,4
910.06,15,6,-9,-1
910.061,12,6,-9,-3
910.061,13,9,-5,-6
910.062,6,5,-7,-8
910.063,-1,-2,-8,-6
910.063,1,0,-4,0
910.064,7,7,3,4
910.064,8,8,4,1
910.065,1,2,3,5
910.065,4,4,12,20
910.066,19,13,16,22
910.067,17,3,0,8
910.067,5,-8,-8,2
910.068,0,-16,-23,-11
910.068,0,-9,-25,-18
910.069,2,1,-14,-8
910.07,13,18,4,5
910.07,24,31,18,13
910.071,26,33,22,13
910.071,18,25,17,3
910.072,0,9,13,2
910.072,-10,2,25,19
910.073,-10,-8,25,20
910.074,-22,-24,17,14
910.074,-30,-34,3,4
910.075,-30,-34,-6,-4
910.075,-29,-32,-18,-14
910.076,-25,-30,-23,-10
910.076,-10,-21,-18,4
910.077,15,1,-7,14
910.078,27,7,-10,5
910.078,20,9,-3,7
910.079,20,16,10,17
910.079,25,23,19,26
910.08,31,27,23,27
910.08,28,23,20,19
910.081,16,11,9,10
910.082,7,1,-2,-3
910.082,0,3,-2,-12
910.083,-11,0,-2,-13
910.083,-10,1,-1,-11
910.084,-6,4,-1,-12
910.084,-8,1,-4,-13
910.085,-9,-1,-3,-6
910.086,-3,0,-1,0
910.086,1,-5,-8,0
910.087,4,-6,-8,5
910.087,10,-2,-6,7
910.088,7,-14,-17,7
910.089,18,1,-7,8
910.089,26,23,9,12
910.09,26,25,9,6
910.09,20,25,10,4
910.091,18,30,16,0
910.091,8,21,9,-9
910.092,-1,17,9,-12
910.092,-10,9,10,-11
910.093,-21,-6,0,-12
910.094,-18,-6,2,-5
910.094,-6,8,14,4
910.095,0,5,1,-9
910.095,-9,-4,-12,-22
910.096,-16,-3,-8,-18
910.096,-11,2,0,-9
910.097,-6,6,15,13
910.098,9,10,23,35
910.098,28,19,30,39
910.099,23,8,17,20
910.099,-1,-13,-2,-4
910.1,-24,-35,-25,-16
910.101,-18,-23,-20,-5
910.101,8,1,-6,11
910.102,32,18,-2,15
910.102,39,23,-2,7
910.103,25,17,0,3
910.103,12,8,-1,-5
910.104,-2,4,11,5
910.105,-3,7,22,16
910.105,3,12,26,18
910.106,2,8,21,8
910.106,-15,-16,-4,-11
910.107,-35,-44,-33,-28
910.107,-39,-46,-37,-20
910.108,-12,-13,-9,5
910.109,20,21,17,24
910.109,37,36,23,19
910.11,28,34,22,9
910.11,14,25,19,7
910.111,9,15,10,1
910.111,1,6,2,-5
910.112,-6,1,6,0
910.113,-2,0,1,-4
910.113,-5,-6,-7,-7
910.114,-4,-7,-18,-16
910.114,-3,2,0,-2
910.115,-2,3,10,10
910.115,0,0,12,16
910.116,3,-2,7,14
910.117,2,-7,-3,3
910.117,-5,-18,-16,-7
910.118,-6,-12,-9,4
910.118,11,2,1,16
910.119,25,14,7,17
910.12,28,22,11,11
910.12,19,15,5,5
910.121,10,4,-3,0
910.121,5,-3,-11,0
910.122,11,0,-9,3
910.122,16,6,-3,6
910.123,15,8,2,8
910.124,8,0,-2,0
910.124,0,-5,-8,-9
910.125,-6,-5,-8,-11
910.125,-7,0,5,2
910.126,0,3,7,6
910.126,2,4,10,8
910.127,6,12,21,15
910.128,7,12,24,16
910.128,1,2,9,1
910.129,-9,-6,-1,-8
910.129,-15,-10,-3,-5
910.13,-8,-3,-1,-4
910.13,-1,7,8,2
910.131,5,14,13,2
910.132,2,10,5,-3
910.132,0,9,5,-3
910.133,3,15,13,3
910.133,3,13,13,2
910.134,-3,1,2,-3
910.134,-6,-4,-2,-2
910.135,-1,-2,-2,0
910.135,0,-3,-2,3
910.136,3,-5,-7,0
910.137,3,-7,-12,-3
910.137,3,-2,-6,3
910.138,8,-2,-8,3
910.138,12,2,-6,5
910.139,20,14,3,12
910.14,25,16,1,8
910.14,20,11,-6,-2
910.141,10,6,-6,-2
910.141,10,12,8,7
910.142,11,16,14,8
910.142,5,6,1,-3
910.143,-1,0,-5,-8
910.144,-3,5,7,0
910.144,-3,7,19,10
910.145,-7,0,20,13
910.145,-9,-10,11,13
910.146,-5,-10,2,7
910.146,-2,-9,-4,-1
910.147,-2,-4,-4,-3
910.148,-3,-3,-3,-1
910.148,0,1,3,8
910.149,9,10,11,15
910.149,18,17,16,13
910.15,14,16,13,4
910.151,1,4,1,-7
910.151,-8,0,0,-9
910.152,-9,1,1,-9
910.152,-7,5,2,-9
910.153,-8,1,0,-9
910.153,-8,-1,-1,-5
910.154,-3,1,0,2
910.154,6,10,8,10
910.155,11,9,4,6
910.156,6,-1,-5,0
910.156,0,-9,-12,-1
910.157,2,-6,-6,8
910.157,13,0,1,17
910.158,20,3,0,15
910.159,16,0,-4,7
910.159,11,2,-1,7
910.16,13,7,4,9
910.16,14,11,8,10
910.161,13,9,6,5
910.161,7,3,0,0
910.162,0,-2,-4,-2
910.163,0,-1,-1,2
910.163,4,3,1,4
910.164,5,2,0,1
910.164,2,0,0,0
910.165,-1,-4,-3,0
910.165,-1,-4,-2,1
910.166,1,-1,-1,4
910.167,5,1,0,4
910.167,5,1,0,2
910.168,5,2,1,4
910.168,7,8,7,7
910.169,9,11,10,6
910.169,9,15,12,4
910.17,7,15,11,0
910.171,1,11,7,-3
910.171,-1,10,6,-5
910.172,-3,9,6,-7
910.172,-6,4,3,-7
910.173,-7,0,0,-8
910.173,-6,0,0,-5
910.174,-4,0,1,-2
910.175,-1,0,-1,-2
910.175,-1,-2,-3,0
910.176,1,-1,-1,2
910.176,4,0,0,7
910.177,7,1,0,8
910.177,7,0,0,9
910.178,9,0,0,10
910.179,11,2,2,11
910.179,13,9,9,13
910.18,13,10,8,9
910.18,8,6,4,5
910.181,4,5,4,3
910.181,2,1,1,1
910.182,0,-2,-1,2
910.183,0,-2,-1,1
910.183,1,-2,-2,0
910.184,0,-1,-2,-1
910.184,1,2,3,4
910.185,5,3,1,2
910.185,3,1,0,0
910.186,0,-1,-2,-1
910.187,0,-1,-1,2
910.187,4,2,4,7
910.188,7,7,10,10
910.188,9,9,9,6
910.189,5,7,7,3
910.19,4,11,10,1
910.19,1,12,10,-2
910.191,-1,13,10,-5
910.191,-4,12,11,-5
910.192,-6,6,5,-9
910.192,-10,1,1,-9
910.193,-8,0,-1,-7
910.194,-4,0,-3,-4
910.194,0,1,0,1
910.195,6,2,-2,3
910.195,10,4,-2,4
910.196,10,3,-2,3
910.196,6,0,-2,3
910.197,5,-2,-3,5
910.198,5,-4,-2,9
910.198,9,-3,-1,11
910.199,13,2,2,12
910.199,14,10,9,12
910.2,12,10,8,9
910.2,7,5,4,2
910.201,0,0,1,2
910.202,0,-1,0,2
910.202,1,0,1,4
910.203,3,0,0,3
910.203,1,-3,-2,2
910.204,2,-3,-2,5
910.204,4,-1,0,6
910.205,6,-1,-2,6
910.206,7,0,-3,5
910.206,6,-1,-4,3
910.207,7,0,-1,3
910.207,7,2,0,5
910.208,12,9,1,3
910.208,12,13,3,-1
910.209,5,10,5,-2
910.21,3,14,10,-1
910.21,1,14,12,-2
910.211,0,14,11,-5
910.211,-4,12,10,-6
910.212,-7,7,6,-9
910.212,-11,1,3,-7
910.213,-9,0,2,-4
910.214,-6,0,2,-1
910.214,0,2,3,0
910.215,0,3,4,3
910.215,0,-1,1,4
910.216,-1,-7,-3,2
910.216,-3,-12,-6,4
910.217,1,-10,-4,10
910.218,9,-3,0,14
910.218,13,2,7,16
910.219,12,7,12,16
910.219,8,5,12,14
910.22,7,7,14,13
910.221,6,5,10,11
910.221,7,5,6,8
910.222,9,4,-1,2
910.222,9,4,-6,-5
910.223,5,3,-5,-7
910.223,0,2,-2,-4
910.224,0,4,0,-3
910.225,-1,-1,-5,-5
910.225,-3,-7,-10,-3
910.226,3,-1,-6,3
910.226,13,6,-3,7
910.227,20,10,-2,6
910.227,17,9,-4,0
910.228,9,6,-2,-6
910.229,-3,0,0,-7
910.229,-9,0,4,-1
910.23,-4,8,15,4
910.23,1,14,18,5
910.231,2,17,18,0
910.232,-1,15,14,-3
910.232,-3,13,9,-5
910.233,0,12,5,-7
910.233,0,9,3,-6
910.234,-1,7,4,-2
910.234,-1,4,3,-1
910.235,-3,-1,0,-1
910.236,-5,-9,-6,0
910.236,-3,-13,-10,3
910.237,4,-5,-5,6
910.237,4,-4,-2,7
910.238,1,-8,-2,8
910.238,0,-10,-1,10
910.239,5,0,9,17
910.24,13,10,15,19
910.24,14,8,9,15
910.241,13,4,4,9
910.241,11,7,5,6
910.242,7,8,5,3
910.242,6,9,6,5
910.243,9,9,2,1
910.243,8,8,-1,-4
910.244,0,0,-5,-7
910.245,-3,-2,-5,-8
910.245,-7,-6,-5,-5
910.246,-6,-4,-1,0
910.246,-3,-5,0,4
910.247,2,0,5,6
910.248,0,0,6,6
910.248,-4,-6,4,10
910.249,4,-1,2,21
910.249,34,21,3,19
910.25,50,40,6,-2
910.25,14,19,1,-17
910.251,-17,-5,-3,-13
910.252,-15,-5,-2,-8
910.252,-7,0,-1,-9
910.253,-5,3,0,-6
910.253,-3,6,6,-1
910.254,0,11,12,0
910.254,-1,9,11,0
910.255,-4,0,1,0
910.256,4,6,0,-1
910.256,4,6,1,0
910.257,0,4,5,1
910.257,-4,-4,0,3
910.258,0,-3,-2,3
910.258,6,1,-1,7
910.259,17,14,6,12
910.26,26,24,11,11
910.26,20,16,2,-2
910.261,1,0,-6,-11
910.261,-14,-12,-9,-13
910.262,-17,-9,2,-5
910.263,-19,-7,13,6
910.263,-11,-2,17,11
910.264,-6,0,16,16
910.264,4,6,17,13
910.265,2,4,14,15
910.265,9,4,5,16
910.266,27,17,0,-1
910.266,4,2,-6,-11
910.267,-11,-11,-9,-6
910.268,-6,-7,-4,10
910.268,27,25,9,7
910.269,28,36,13,-2
910.269,11,27,11,-4
910.27,12,31,14,-10
910.27,-1,17,5,-23
910.271,-21,0,-2,-24
910.272,-27,-5,-2,-19
910.272,-24,-10,-5,-8
910.273,-5,-3,-6,-1
910.273,12,12,-1,-5
910.274,6,11,-1,-12
910.275,-11,-4,0,-1
910.275,-2,-1,0,10
910.276,18,12,4,4
910.276,4,2,5,0
910.277,-12,-9,7,10
910.277,0,-1,12,17
910.278,5,0,11,12
910.279,-4,-7,10,16
910.279,2,1,16,16
910.28,4,8,21,13
910.28,-3,2,19,15
910.281,0,0,12,10
910.281,-1,-3,3,6
910.282,3,-1,-3,4
910.283,10,2,-8,3
910.283,22,15,-5,7
910.284,34,26,-2,-4
910.284,13,11,-8,-17
910.285,-14,-11,-14,-18
910.285,-21,-19,-15,-5
910.286,1,-4,-9,0
910.287,14,10,-1,-2
910.287,2,6,5,1
910.288,-4,0,7,8
910.288,5,3,7,18
910.289,29,21,6,12
910.289,32,28,7,4
910.29,21,23,6,0
910.291,17,22,4,-6
910.291,5,11,-5,-16
910.292,-7,-2,-16,-30
910.292,-26,-12,-10,-24
910.293,-30,-12,2,-8
910.293,-23,-11,7,6
910.294,-8,-9,5,8
910.295,-3,-10,1,9
910.295,0,-5,6,18
910.296,12,5,14,27
910.296,24,14,16,22
910.297,18,10,10,14
910.297,7,-1,0,8
910.298,4,-6,-4,6
910.299,5,-1,4,14
910.299,13,5,6,17
910.3,26,16,2,2
910.3,13,10,-2,-5
910.301,3,6,0,-1
910.302,5,8,0,-6
910.302,-7,-3,-2,-9
910.303,-15,-10,-6,-10
910.303,-15,-10,-4,-6
910.304,-14,-13,-2,0
910.304,-9,-11,0,10
910.305,4,0,6,14
910.306,11,3,5,8
910.306,0,-5,2,11
910.307,4,-2,5,17
910.307,14,5,8,17
910.308,16,6,5,14
910.308,17,12,7,15
910.309,26,23,11,11
910.31,23,25,11,3
910.31,8,14,5,-6
910.311,-5,2,0,-13
910.311,-15,-6,-6,-12
910.312,-9,-2,-6,-11
910.312,-3,1,-5,-7
910.313,5,10,-2,-5
910.314,6,8,-5,-8
910.314,3,3,-10,-9
910.315,3,4,-8,-10
910.315,-1,0,-5,-4
910.316,2,2,-2,-2
910.316,-3,-5,-4,-3
910.317,-9,-14,-3,4
910.318,-5,-10,5,20
910.318,15,7,14,23
910.319,19,15,20,22
910.319,13,12,19,19
910.32,9,5,10,10
910.321,-1,-5,3,4
910.321,-10,-15,-2,3
910.322,-7,-16,-6,3
910.322,-1,-5,3,7
910.323,2,5,15,14
910.323,4,4,14,16
910.324,9,3,5,13
910.324,14,5,-1,3
910.325,10,2,-6,0
910.326,5,1,-4,-1
910.326,3,1,-2,0
910.327,2,0,-4,0
910.327,2,-5,-10,3
910.328,17,4,-9,4
910.329,26,17,-2,6
910.329,29,23,2,3
910.33,28,27,0,-11
910.33,0,8,-4,-19
910.331,-15,-1,-2,-17
910.331,-17,-2,2,-9
910.332,-13,-2,4,-2
910.333,-6,0,2,0
910.333,0,2,1,0
910.334,2,1,0,3
910.334,5,3,2,4
910.335,5,3,3,6
910.335,5,-2,-2,8
910.336,14,3,-2,7
910.337,14,4,-2,5
910.337,8,1,0,5
910.338,6,-1,-1,3
910.338,0,-3,-1,2
910.339,-3,-4,3,4
910.339,-2,0,11,11
910.34,3,6,17,18
910.341,13,12,15,11
910.341,3,2,5,2
910.342,-5,-4,2,1
910.342,-5,-4,4,6
910.343,1,0,2,4
910.343,1,-2,0,10
910.344,21,10,-2,14
910.345,40,27,-4,-2
910.345,18,14,-7,-16
910.346,-10,-6,-9,-13
910.346,-13,-7,-2,-9
910.347,-15,-10,-2,-4
910.347,-10,-6,3,3
910.348,-1,2,10,9
910.349,5,9,14,12
910.349,10,14,15,7
910.35,5,9,7,1
910.35,1,7,4,-1
910.351,2,9,7,-1
910.352,-1,4,4,0
910.352,-5,-6,-3,0
910.353,-2,-5,-3,1
910.353,4,4,5,6
910.354,6,8,8,7
910.354,5,6,6,6
910.355,4,3,3,3
910.355,1,-2,-2,1
910.356,1,-3,-4,2
910.357,9,4,-2,4
910.357,11,6,-1,3
910.358,7,1,-3,3
910.358,5,-2,-5,3
910.359,7,1,0,4
910.359,7,6,4,5
910.36,8,9,7,4
910.361,5,9,8,3
910.361,2,4,3,0
910.362,-2,0,0,-1
910.362,-2,0,0,-1
910.363,-1,0,2,0
910.364,-1,-2,0,1
910.364,-4,-14,-11,3
910.365,0,-15,-11,5
910.365,8,-3,-2,8
910.366,10,5,5,13
910.367,14,10,11,15
910.367,14,10,10,12
910.368,10,6,4,5
910.368,4,2,0,0
910.369,2,2,1,0
910.369,4,8,7,3
910.37,5,9,8,5
910.37,6,9,5,0
910.371,1,5,1,-5
910.372,-4,-2,-3,-7
910.372,-3,2,1,-2
910.373,-3,1,2,0
910.373,-1,2,2,3
910.374,8,10,4,5
910.374,13,15,2,-1
910.375,5,7,0,-4
910.376,0,2,0,-3
910.376,-3,-5,-4,-4
910.377,-10,-20,-15,-3
910.377,-3,-14,-11,6
910.378,10,2,2,13
910.379,16,11,10,16
910.379,17,15,15,15
910.38,9,7,10,12
910.38,8,3,2,4
910.381,3,-2,-2,1
910.381,0,-6,-4,2
910.382,1,-3,0,9
910.383,12,7,2,5
910.383,9,6,0,-1
910.384,0,0,-2,3
910.384,12,11,2,-2
910.385,-1,2,0,-6
910.385,-12,-6,0,-2
910.386,-7,-2,3,3
910.387,5,5,4,13
910.387,28,23,5,3
910.388,13,12,1,-7
910.388,-9,-6,-2,-4
910.389,-7,-6,-1,2
910.389,6,8,5,3
910.39,9,15,11,2
910.391,5,18,15,1
910.391,-1,12,14,-2
910.392,-11,4,10,-5
910.392,-16,-3,5,-6
910.393,-14,-2,5,-1
910.393,-7,2,9,3
910.394,-5,-1,5,1
910.395,-14,-18,-4,5
910.395,-1,-10,-3,21
910.396,38,23,5,20
910.396,46,33,4,4
910.397,20,14,-3,-3
910.397,4,0,-10,-9
910.398,-4,-8,-15,-15
910.399,-13,-13,-12,-9
910.399,-5,-2,2,5
910.4,10,14,13,12
910.4,14,14,11,6
910.401,3,3,1,-2
910.401,-4,-4,-4,-3
910.402,-3,-1,0,3
910.403,3,3,7,9
910.403,7,4,5,8
910.404,9,6,4,3
910.404,3,2,1,0
910.405,0,1,2,2
910.405,2,2,3,6
910.406,6,5,3,4
910.407,4,1,0,-1
910.407,0,0,-3,-4
910.408,0,1,2,1
910.408,4,7,8,7
910.409,8,10,10,6
910.41,6,8,6,0
910.41,-1,2,1,-4
910.411,-6,-1,1,0
910.411,-3,0,4,5
910.412,3,5,9,7
910.412,3,4,5,2
910.413,-2,-1,0,0
910.414,-1,0,1,2
910.414,3,3,4,6
910.415,8,5,4,6
910.415,5,1,-1,1
910.416,1,-5,-7,0
910.416,0,-7,-6,2
910.417,4,-4,-3,9
910.418,9,0,0,13
910.418,14,3,2,11
910.419,13,7,5,9
910.419,10,6,4,6
910.42,7,7,5,5
910.42,4,4,4,2
910.421,-1,-2,0,0
910.422,-4,-6,-1,0
910.422,-1,-2,0,2
910.423,1,0,2,3
910.423,4,5,4,2
910.424,0,1,5,5
910.424,0,0,3,7
910.425,8,2,-2,9
910.426,24,13,-4,-1
910.426,9,6,-5,-8
910.427,-4,-4,-3,-3
910.427,-5,-4,0,3
910.428,0,-1,0,10
910.428,16,10,1,11
910.429,29,24,4,2
910.43,16,18,3,-3
910.43,2,5,-1,-9
910.431,-8,-3,-4,-11
910.431,-12,-6,-4,-9
910.432,-8,0,1,-1
910.432,1,8,11,6
910.433,5,10,10,4
910.434,3,7,6,1
910.434,1,3,3,0
910.435,0,3,4,3
910.435,3,6,7,6
910.436,7,6,6,6
910.437,4,1,0,0
910.437,-1,-5,-5,-2
910.438,-4,-10,-7,1
910.438,2,-4,-1,7
910.439,10,7,7,12
910.439,11,8,8,7
910.44,5,3,5,4
910.44,1,1,4,6
910.441,6,6,8,9
910.442,9,10,9,6
910.442,7,9,4,-1
910.443,-1,0,-3,-5
910.443,-1,-1,-4,-1
910.444,8,8,0,-2
910.445,5,6,0,-5
910.445,-1,1,-2,-6
910.446,-8,-6,-3,-5
910.446,-9,-7,-2,-1
910.447,-3,-1,4,4
910.447,0,4,9,8
910.448,4,5,10,9
910.449,5,6,10,8
910.449,8,10,12,8
910.45,7,12,12,12
910.45,16,16,9,11
910.451,24,23,4,-1
910.451,10,12,-4,-10
910.452,-1,0,-9,-14
910.453,-8,-3,-8,-14
910.453,-10,-4,-3,-7
910.454,-5,0,0,-3
910.454,0,3,2,0
910.455,2,3,2,2
910.456,1,-1,-1,2
910.456,4,0,0,4
910.457,5,1,1,7
910.457,5,0,0,6
910.458,3,-5,-2,8
910.458,3,-9,-4,8
910.459,6,-1,3,10
910.459,6,6,13,12
910.46,6,7,15,14
910.461,6,7,14,12
910.461,3,0,6,6
910.462,-1,-4,1,2
910.462,-4,-7,0,4
910.463,0,-3,1,9
910.463,13,8,3,11
910.464,21,15,2,2
910.465,8,1,-7,-4
910.465,-1,-6,-11,-4
910.466,2,0,-5,0
910.466,7,6,0,0
910.467,6,7,1,0
910.467,4,5,1,0
910.468,5,8,2,0
910.469,2,4,1,-1
910.469,1,6,4,0
910.47,1,5,3,0
910.47,0,4,3,0
910.471,1,6,5,0
910.471,2,6,6,1
910.472,2,7,5,0
910.473,0,4,2,0
910.473,1,4,2,0
910.474,2,4,2,0
910.474,0,2,2,0
910.475,-3,-1,1,0
910.476,-5,-3,0,0
910.476,-3,-3,3,4
910.477,0,0,5,6
910.477,-1,0,8,8
910.478,0,0,9,13
910.478,8,3,7,17
910.479,22,12,4,14
910.48,26,15,-1,3
910.48,16,10,-3,-5
910.481,0,1,-4,-3
910.481,3,2,-4,-4
910.482,0,-3,-9,-6
910.482,-2,-5,-8,-4
910.483,1,1,0,0
910.484,4,5,2,1
910.484,2,5,3,0
910.485,0,1,5,4
910.485,3,3,5,8
910.486,10,8,3,4
910.487,9,8,2,0
910.487,2,3,1,0
910.488,-1,1,1,1
910.488,2,4,5,4
910.489,5,8,6,1
910.489,2,8,7,0
910.49,-2,1,3,-1
910.49,-4,1,5,0
910.491,-1,6,10,2
910.492,-1,7,12,4
910.492,0,5,8,1
910.493,-2,0,4,0
910.493,0,1,4,2
910.494,0,2,5,4
910.495,0,0,2,4
910.495,1,0,0,3
910.496,1,-2,0,4
910.496,3,-2,-2,6
910.497,7,0,-2,4
910.497,4,-3,-2,9
910.498,14,4,0,14
910.499,30,20,3,8
910.499,21,17,2,-1
910.5,0,0,-3,-7
910.5,-9,-7,-3,-4
910.501,-9,-8,-4,-1
910.501,-3,-1,2,5
910.502,3,3,5,7
910.503,6,6,6,5
910.503,3,3,4,5
910.504,5,2,1,5
910.504,12,8,1,1
910.505,6,4,0,-1
910.505,0,0,0,1
910.506,1,1,1,1
910.507,1,1,2,1
910.507,0,0,1,1
910.508,1,-1,0,4
910.508,6,4,2,6
910.509,10,9,5,5
910.509,8,9,5,1
910.51,4,7,5,1
910.511,4,8,7,2
910.511,2,6,5,0
910.512,2,5,2,-2
910.512,-1,2,0,-4
910.513,-3,0,-2,-4
910.513,-1,3,0,-1
910.514,1,7,6,1
910.515,2,7,6,0
910.515,-3,0,2,-2
910.516,-9,-6,1,1
910.516,-4,-2,4,5
910.517,-1,-3,3,7
910.517,0,-4,3,10
910.518,4,-2,3,12
910.519,10,4,7,16
910.519,20,14,9,17
910.52,27,19,5,13
910.52,32,23,0,-3
910.521,8,6,-6,-14
910.521,-11,-9,-11,-14
910.522,-16,-14,-10,-9
910.523,-14,-12,-5,-1
910.523,-4,-7,-2,6
910.524,12,8,6,10
910.524,16,15,9,8
910.525,10,8,4,5
910.526,8,5,0,1
910.526,9,6,0,-1
910.527,1,2,-1,-2
910.527,0,0,0,0
910.528,0,1,0,0
910.528,1,2,2,1
910.529,1,4,6,4
910.53,3,9,10,7
910.53,7,9,9,6
910.531,8,11,7,1
910.531,2,5,3,-2
910.532,-2,1,1,-3
910.532,-2,1,2,0
910.533,0,2,1,-1
910.534,-1,0,0,0
910.534,0,0,1,0
910.535,0,0,1,2
910.535,2,0,1,6
910.536,6,2,0,6
910.536,7,1,0,3
910.537,5,0,0,4
910.538,6,2,2,8
910.538,9,3,2,7
910.539,9,6,4,6
910.539,5,4,5,3
910.54,1,2,3,2
910.54,0,0,2,3
910.541,0,0,2,4
910.542,2,0,2,3
910.542,3,1,1,1
910.543,1,1,1,0
910.543,0,0,1,2
910.544,1,1,2,3
910.544,3,3,3,4
910.545,5,4,3,2
910.546,2,1,1,2
910.546,2,2,2,4
910.547,6,5,3,6
910.547,11,9,1,2
910.548,7,4,-2,0
910.549,3,2,0,-1
910.549,2,4,2,0
910.55,0,4,3,0
910.55,0,3,2,1
910.551,3,6,4,2
910.551,5,8,6,1
910.552,4,8,6,0
910.552,1,5,3,-2
910.553,0,3,2,-1
910.554,-1,1,1,0
910.554,2,3,2,0
910.555,0,1,0,1
910.555,0,0,0,1
910.556,1,-1,0,3
910.557,2,0,1,4
910.557,4,0,1,6
910.558,6,0,0,6
910.558,7,3,3,7
910.559,10,9,7,8
910.559,10,8,6,6
910.56,9,9,6,4
910.561,7,9,5,0
910.561,0,2,-1,-4
910.562,-6,-8,-8,-5
910.562,-8,-15,-13,-2
910.563,1,-6,-5,4
910.563,9,6,5,9
910.564,12,11,9,8
910.565,9,8,7,5
910.565,5,4,4,5
910.566,3,1,0,1
910.566,1,1,0,0
910.567,-2,-1,1,1
910.567,1,1,4,8
910.568,13,13,7,8
910.569,13,10,2,0
910.57,3,2,-1,-2
910.57,0,3,1,0
910.57,1,5,6,2
910.571,1,6,6,1
910.571,1,4,3,-1
910.572,-2,0,0,-4
910.573,-6,-2,0,-2
910.573,-5,0,3,1
910.574,0,2,5,3
910.574,1,1,4,5
910.575,3,2,5,6
910.576,4,2,4,5
910.576,1,0,3,5
910.577,0,-1,3,8
910.577,5,-1,0,8
910.578,10,1,0,5
910.578,9,6,2,7
910.579,13,12,6,6
910.579,12,12,5,1
910.58,5,5,0,0
910.581,5,3,-1,-2
910.581,0,-1,-4,-4
910.582,-4,-5,-6,-3
910.582,-1,-1,-2,-1
910.583,0,0,1,2
910.584,2,4,5,5
910.584,4,4,5,6
910.585,4,0,1,6
910.585,10,4,0,4
910.586,9,5,0,1
910.586,8,7,0,3
910.587,10,7,0,0
910.588,5,2,-1,-3
910.588,0,0,-1,-2
910.589,0,3,3,2
910.589,4,9,8,4
910.59,6,11,8,2
910.59,5,9,6,0
910.591,0,4,3,-1
910.592,-1,1,1,-1
910.592,-1,1,1,-1
910.593,-3,0,2,0
910.593,-2,0,3,2
910.594,-2,0,3,4
910.594,0,0,4,5
910.595,3,2,5,6
910.596,2,0,2,5
910.596,3,0,1,8
910.597,10,4,1,8
910.597,14,6,-1,5
910.598,13,5,-2,1
910.598,8,5,0,1
910.599,4,4,2,1
910.6,1,1,1,0
910.6,-1,-2,0,0
910.601,0,-1,0,2
910.601,2,1,1,2
910.602,3,2,2,2
910.603,1,1,0,2
910.603,1,0,0,4
910.604,7,4,1,6
910.604,14,12,4,4
910.605,11,10,2,0
910.605,3,3,0,-3
910.606,-4,-3,-2,-4
910.607,-6,-4,0,0
910.607,-5,-2,2,2
910.608,-1,0,6,6
910.608,2,5,10,10
910.609,5,6,9,12
910.609,16,15,9,8
910.61,13,13,5,0
910.61,2,5,2,-1
910.611,1,4,1,-2
910.612,0,2,0,-4
910.612,-2,0,-2,-6
910.613,-5,-2,-2,-2
910.613,0,2,2,0
910.614,4,6,5,2
910.615,3,5,4,2
910.615,1,1,1,0
910.616,0,-3,-2,1
910.616,0,-3,-3,4
910.617,4,-2,-1,7
910.617,7,0,0,8
910.618,9,3,2,9
910.619,11,6,6,9
910.619,10,8,7,9
910.62,8,7,6,7
910.62,5,3,1,1
910.621,0,-1,-1,0
910.621,0,-1,-2,0
910.622,0,2,2,2
910.623,3,4,2,2
910.623,3,3,2,2
910.624,4,3,1,1
910.624,3,3,2,1
910.625,3,4,1,1
910.625,3,3,0,0
910.626,4,4,1,0
910.627,2,3,1,0
910.627,1,2,2,0
910.628,0,1,4,2
910.628,0,3,6,4
910.629,2,5,6,3
910.63,0,3,5,3
910.63,0,2,5,4
910.631,4,5,5,4
910.631,3,2,3,7
910.632,12,12,6,8
910.632,20,21,6,0
910.633,6,9,0,-7
910.634,-5,-1,-5,-8
910.634,-7,-5,-5,-6
910.635,-6,-6,-5,-4
910.635,-4,-4,-2,0
910.636,0,-1,1,6
910.636,5,1,3,8
910.637,8,2,3,8
910.638,8,2,2,7
910.638,8,3,3,8
910.639,11,10,9,8
910.639,10,10,9,6
910.64,5,4,2,1
910.64,0,0,0,0
910.641,-1,-2,-2,0
910.642,1,-1,-1,1
910.642,3,1,0,2
910.643,3,2,1,2
910.643,3,1,1,3
910.644,3,1,0,3
910.644,5,3,0,2
910.645,3,1,0,4
910.646,6,3,0,3
910.646,8,6,0,1
910.647,5,5,1,0
910.647,2,4,4,2
910.648,2,6,6,3
910.648,4,8,6,2
910.649,4,8,5,0
910.65,1,4,4,-1
910.65,-2,0,2,1
910.651,0,2,3,2
910.651,2,3,4,0
910.652,-1,2,5,0
910.652,-3,0,4,0
910.653,-4,-1,4,3
910.654,-1,0,5,4
910.654,0,1,6,4
910.655,2,2,5,6
910.655,5,4,3,9
910.656,13,8,1,8
910.656,18,11,-1,1
910.657,11,6,-4,-2
910.658,5,1,-6,-2
910.658,3,0,-4,-1
910.659,4,2,0,0
910.659,2,2,1,1
910.66,1,1,1,1
910.661,2,2,2,3
910.661,3,3,3,3
910.662,3,3,2,2
910.662,2,2,2,2
910.663,1,1,2,2
910.663,1,0,3,2
910.664,0,0,3,3
910.665,0,0,2,3
910.665,1,1,3,3
910.666,2,0,3,4
910.666,3,3,5,6
910.667,4,2,4,7
910.667,6,2,2,7
910.668,11,7,3,5
910.669,10,9,4,2
910.669,6,8,5,1
910.67,3,7,5,0
910.67,2,6,3,-3
910.671,0,3,1,-3
910.671,-2,2,0,-2
910.672,-1,2,1,0
910.673,1,4,2,0
910.673,2,3,1,1
910.674,2,3,1,0
910.674,2,3,1,1
910.675,2,2,0,2
910.675,3,2,0,1
910.676,2,0,0,1
910.677,1,0,0,1
910.677,2,0,0,3
910.678,2,-1,0,4
910.678,2,-1,2,7
910.679,5,2,5,8
910.68,8,3,3,9
910.68,8,2,3,9
910.681,13,11,6,8
910.681,12,11,5,1
910.682,3,2,0,-2
910.682,-2,-3,-2,-3
910.683,-4,-4,-2,-1
910.684,0,-1,1,3
910.684,4,2,1,4
910.685,4,3,1,2
910.685,3,3,3,3
910.686,3,3,3,3
910.686,4,3,2,4
910.687,5,1,0,3
910.687,9,7,1,2
910.688,9,9,2,0
910.689,4,6,2,-1
910.689,1,7,6,0
910.69,0,6,6,0
910.69,-1,4,4,-1
910.691,-2,1,2,-1
910.692,-1,0,2,0
910.692,0,3,2,0
910.693,1,3,3,1
910.693,1,4,4,3
910.694,2,2,2,4
910.694,7,2,0,3
910.695,9,4,0,0
910.695,0,-2,-1,-1
910.696,-5,-6,0,2
910.697,-3,-5,3,9
910.697,5,1,4,11
910.698,10,5,5,13
910.698,16,9,4,9
910.699,16,12,4,7
910.7,15,12,2,2
910.7,11,9,-1,-3
910.701,0,0,-2,-5
910.701,-5,-5,-5,-5
910.702,-6,-4,-3,-2
910.702,-1,0,0,1
910.703,2,3,3,3
910.704,4,4,2,3
910.704,5,3,1,3
910.705,4,2,0,2
910.705,3,2,1,2
910.706,3,1,0,1
910.706,1,0,2,3
910.707,2,2,2,5
910.708,6,5,4,5
910.708,7,7,5,4
910.709,6,8,7,3
910.709,6,10,8,1
910.71,1,7,7,0
910.71,0,5,5,0
910.711,-1,4,4,0
910.712,-4,0,1,-2
910.712,-3,-1,1,0
910.713,-1,0,2,1
910.713,0,1,3,6
910.714,9,7,4,4
910.714,8,6,1,1
910.715,2,0,-1,0
910.716,1,-3,-1,3
910.716,3,-1,-1,4
910.717,5,0,0,4
910.717,5,1,0,6
910.718,7,4,3,7
910.718,9,7,4,4
910.719,6,7,5,4
910.72,4,2,0,0
910.72,1,0,0,2
910.721,5,2,1,3
910.721,6,3,1,1
910.722,1,0,0,1
910.723,0,0,0,1
910.723,2,3,4,4
910.724,3,4,5,3
910.724,2,4,4,3
910.725,2,1,1,1
910.725,2,1,1,1
910.726,3,3,1,0
910.727,3,4,2,2
910.727,4,4,3,2
910.728,4,3,0,1
910.728,3,2,0,1
910.729,5,5,3,2
910.729,4,6,5,2
910.73,3,4,3,1
910.731,2,5,5,2
910.731,2,5,5,2
910.732,0,4,5,3
910.732,2,3,4,2
910.733,2,3,2,1
910.733,1,2,2,1
910.734,0,0,0,0
910.735,1,0,0,1
910.735,3,0,-1,2
910.736,3,0,0,3
910.736,4,1,1,5
910.737,5,1,1,5
910.737,7,2,0,5
910.738,6,3,0,5
910.739,9,7,5,7
910.739,9,7,4,5
910.74,5,4,2,2
910.74,2,1,0,0
910.741,0,-1,0,-1
910.741,-3,-3,0,1
910.742,-2,-1,1,2
910.743,0,0,2,6
910.743,3,1,4,6
910.744,6,4,4,7
910.744,10,9,5,7
910.745,12,10,4,5
910.745,10,8,0,0
910.746,8,5,-2,-4
910.747,0,0,-4,-6
910.747,-3,0,0,-3
910.748,-2,1,2,0
910.748,0,2,5,3
910.749,3,6,6,7
910.75,12,12,6,7
910.75,15,15,3,0
910.751,5,7,0,-5
910.751,-2,-2,-4,-5
910.752,0,2,0,-1
910.752,3,9,4,-2
910.753,-1,3,1,-3
910.753,-4,0,3,0
910.754,0,2,3,2
910.755,0,0,1,1
910.755,-1,-4,-1,0
910.756,-1,-2,2,6
910.756,1,0,7,11
910.757,5,1,7,11
910.758,7,2,5,10
910.758,7,1,3,8
910.759,8,5,5,9
910.759,10,8,7,8
910.76,10,7,4,5
910.76,6,4,0,0
910.761,0,0,-2,-2
910.762,-4,-2,-1,0
910.762,-2,0,1,1
910.763,1,2,2,2
910.763,2,3,3,3
910.764,4,2,1,2
910.764,2,0,-2,3
910.765,9,3,-2,3
910.766,12,5,-3,0
910.766,3,-2,-6,-2
910.767,0,-6,-7,0
910.767,4,1,1,4
910.768,7,7,7,7
910.768,7,10,10,7
910.769,8,15,15,7
910.77,8,14,14,3
910.77,3,10,7,-3
910.771,-4,2,1,-5
910.771,-6,-1,-1,-4
910.772,-4,0,0,-2
910.772,-2,0,0,0
910.773,-1,0,0,0
910.774,1,1,2,2
910.774,4,3,2,4
910.775,4,3,3,5
910.775,5,3,2,4
910.776,5,1,1,4
910.776,4,0,-1,3
910.777,3,-3,-2,4
910.778,4,-2,-1,6
910.778,8,3,2,8
910.779,10,7,6,8
910.779,8,5,4,5
910.78,4,2,2,2
910.781,3,2,3,3
910.781,3,0,0,2
910.782,3,2,2,2
910.782,2,2,1,1
910.783,1,2,2,1
910.783,2,3,2,2
910.784,4,4,2,1
910.785,2,1,0,0
910.785,0,0,-1,0
910.786,2,0,-1,1
910.786,5,3,1,3
910.787,6,6,2,3
910.787,5,7,3,2
910.788,4,7,5,2
910.789,4,7,6,2
910.789,2,6,5,1
910.79,1,4,3,0
910.79,0,5,4,0
910.791,0,5,4,0
910.791,0,4,4,0
910.792,0,2,2,0
910.793,0,2,0,0
910.793,1,1,0,0
910.795,0,1,0,2
910.795,2,0,0,2
910.795,3,0,0,3
910.795,3,0,0,3
910.796,5,1,0,4
910.797,5,3,2,4
910.797,5,3,2,5
910.798,6,3,3,6
910.798,7,6,6,6
910.799,7,5,5,5
910.799,4,3,0,2
910.8,2,1,1,4
910.801,5,3,2,4
910.801,4,3,4,3
910.802,2,0,0,0
910.802,-1,-1,-1,0
910.803,-1,-1,0,0
910.803,-3,-2,1,1
910.804,-2,-2,2,3
910.805,0,0,4,6
910.805,4,2,5,6
910.806,4,2,4,7
910.806,6,3,3,9
910.807,14,9,3,6
910.807,14,11,1,4
910.808,15,13,0,1
910.809,12,12,0,-3
910.809,7,9,-1,-6
910.81,0,3,-3,-10
910.81,-6,0,-2,-9
910.811,-8,0,4,-2
910.812,-4,1,5,0
910.812,-2,1,4,0
910.813,-1,1,3,2
910.813,0,2,4,1
910.814,0,0,5,6
910.814,5,3,4,8
910.815,11,7,3,5
910.816,7,4,1,2
910.816,1,-1,-1,2
910.817,1,-1,0,4
910.817,1,-1,0,4
910.818,2,0,2,6
910.818,4,3,6,7
910.819,7,7,9,12
910.82,13,10,6,7
910.82,8,5,0,0
910.821,1,-1,-4,-2
910.821,-1,-2,-2,0
910.822,0,2,2,1
910.822,0,1,2,1
910.823,0,0,0,1
910.824,0,0,3,2
910.824,1,2,5,4
910.825,1,1,4,7
910.825,6,1,0,9
910.826,15,6,-2,4
910.826,12,4,-4,0
910.827,6,0,-4,-1
910.828,4,4,2,2
910.828,6,7,4,3
910.829,7,7,4,1
910.829,6,9,5,1
910.83,3,7,4,0
910.831,0,6,4,-3
910.831,-2,3,1,-4
910.832,-4,1,2,-2
910.832,-2,2,2,0
910.833,0,2,3,2
910.833,3,4,3,3
910.834,5,6,2,1
910.835,2,1,1,0
910.835,0,0,1,3
910.836,3,0,1,5
910.836,5,0,0,3
910.837,3,-1,-1,3
910.837,2,-2,0,5
910.838,4,0,2,8
910.839,8,4,6,9
910.839,7,5,6,7
910.84,6,5,4,5
910.84,6,5,4,4
910.841,6,5,3,3
910.841,5,5,2,1
910.842,3,4,0,-2
910.843,0,2,0,-3
910.843,-1,1,0,-1
910.844,-1,-1,0,0
910.844,-1,-4,-4,0
910.845,0,-3,-3,1
910.845,4,3,2,5
910.846,7,6,5,8
910.847,13,10,4,8
910.847,12,7,0,2
910.848,7,4,0,0
910.848,2,3,1,0
910.849,3,6,5,1
910.849,2,7,6,2
910.85,4,8,5,1
910.851,3,7,4,-2
910.851,-2,3,2,-3
910.852,-4,0,1,-3
910.852,-4,0,1,-1
910.853,-1,2,3,1
910.853,1,4,5,2
910.854,1,4,5,2
910.855,-1,0,2,3
910.855,1,-1,1,5
910.856,2,0,1,6
910.856,4,0,1,6
910.857,5,0,1,7
910.857,8,1,0,8
910.858,13,7,2,8
910.859,14,11,4,4
910.859,8,6,2,1
910.86,2,0,0,0
910.86,0,1,0,0
910.861,0,0,0,1
910.861,2,2,0,0
910.862,2,2,0,1
910.863,4,4,1,1
910.863,4,4,2,1
910.864,4,3,0,0
910.864,2,0,-1,0
910.865,1,1,0,0
910.865,1,0,1,1
910.866,-1,-2,1,2
910.867,-2,-2,2,5
910.867,0,-1,4,8
910.868,4,3,7,12
910.868,14,11,9,11
910.869,16,14,9,6
910.87,7,9,7,1
910.87,3,8,5,1
910.871,7,11,4,-4
910.871,0,6,1,-8
910.872,-10,-4,-3,-7
910.873,-9,-6,-3,-5
910.873,-6,-4,-1,0
910.874,0,0,1,4
910.874,8,7,4,8
910.875,13,11,5,5
910.875,7,5,2,2
910.876,2,0,0,1
910.876,1,-2,-1,1
910.877,2,-1,0,5
910.878,4,1,2,7
910.878,6,3,3,7
910.879,6,5,5,6
910.879,4,3,3,4
910.88,4,2,2,4
910.88,5,3,2,4
910.881,4,3,2,2
910.882,3,3,0,0
910.882,1,1,0,0
910.883,2,2,1,1
910.883,3,3,1,1
910.884,2,2,1,2
910.884,3,2,0,1
910.885,2,0,-1,0
910.886,1,0,-1,2
910.886,3,2,1,4
910.887,6,4,3,5
910.887,8,6,4,4
910.888,6,6,3,2
910.888,4,5,3,1
910.889,5,9,6,2
910.89,4,8,6,1
910.89,3,6,4,0
910.891,0,3,2,-1
910.891,0,1,0,-1
910.892,-1,1,1,0
910.893,0,3,3,0
910.893,0,3,3,0
910.894,0,1,2,2
910.894,0,0,1,3
910.895,1,1,2,4
910.895,2,0,2,5
910.896,3,-1,1,5
910.897,3,0,1,7
910.897,5,0,1,7
910.898,6,2,3,7
910.898,8,5,5,7
910.899,9,7,4,5
910.899,9,7,3,5
910.9,8,7,1,1
910.901,4,3,0,-2
910.901,-1,0,-1,-3
910.902,-3,-1,0,-2
910.902,-3,-1,1,0
910.903,-1,0,2,1
910.903,1,0,0,4
910.904,8,5,0,6
910.905,16,12,0,2
910.905,9,8,0,-1
910.906,2,2,-2,-2
910.906,0,-1,-2,-2
910.907,-3,-4,-3,-1
910.907,0,0,1,3
910.908,4,4,6,6
910.909,5,7,10,7
910.909,4,8,12,7
910.91,3,7,10,6
910.91,4,7,9,6
910.911,6,7,5,4
910.911,8,9,3,0
910.912,2,4,0,-3
910.913,-1,0,-2,-5
910.913,-4,-1,-1,-3
910.914,-2,0,0,-1
910.914,-2,-1,0,1
910.915,0,0,2,3
910.916,0,-2,1,5
910.916,1,0,2,7
910.917,5,2,3,7
910.917,6,2,3,8
910.918,10,3,1,8
910.918,12,8,4,7
910.919,11,8,3,3
910.919,4,2,0,1
910.92,2,0,-1,2
910.921,5,4,1,1
910.921,4,4,2,0
910.922,3,3,1,1
910.922,5,4,0,0
910.923,0,0,-1,0
910.924,-1,-3,-3,0
910.924,0,-3,-3,0
910.925,1,-2,-2,1
910.925,3,2,3,4
910.926,5,6,7,7
910.926,7,8,8,6
910.927,4,5,5,3
910.928,2,2,3,3
910.928,4,5,5,4
910.929,6,8,7,3
910.929,2,7,6,2
910.93,2,7,4,2
910.93,4,9,4,-1
910.931,0,3,3,-2
910.932,-3,0,1,-2
910.932,-5,-1,0,-2
910.933,-4,-2,0,0
910.933,2,2,2,4
910.934,9,8,2,4
910.934,7,7,3,3
910.935,4,2,0,2
910.936,2,0,0,1
910.936,2,-1,-2,2
910.937,2,-2,-2,6
910.937,9,1,0,8
910.938,16,7,0,4
910.938,8,5,1,2
910.939,3,2,1,2
910.94,2,1,1,1
910.94,1,2,3,3
910.941,3,3,3,3
910.941,3,2,2,2
910.942,2,2,0,1
910.942,1,1,1,1
910.943,2,2,2,3
910.944,3,3,3,3
910.944,2,1,1,3
910.945,2,0,1,3
910.945,3,1,1,3
910.946,4,3,3,5
910.946,6,3,3,4
910.947,5,4,3,3
910.948,5,5,4,1
910.948,1,3,3,0
910.949,0,3,3,1
910.949,0,4,5,2
910.95,2,5,7,2
910.95,3,7,7,1
910.951,0,5,6,2
910.952,0,3,3,2
910.952,7,9,2,0
910.953,6,10,1,-3
910.953,0,1,-2,-4
910.954,-3,-4,-6,-4
910.955,-3,-4,-4,-1
910.955,-1,-2,-1,2
910.956,2,0,0,6
910.956,6,3,5,9
910.957,7,3,4,7
910.957,6,1,1,7
910.958,7,3,3,7
910.959,9,7,6,8
910.959,10,7,5,7
910.96,7,4,2,2
910.96,4,4,1,1
910.961,2,2,0,-1
910.961,-1,0,-1,0
910.962,0,-2,-1,1
910.963,3,1,0,3
910.963,3,1,0,2
910.964,4,3,1,1
910.964,3,3,1,0
910.965,3,4,3,2
910.965,3,3,3,2
910.966,3,3,1,0
910.967,0,0,0,1
910.967,2,2,3,4
910.968,8,9,8,7
910.968,8,10,8,4
910.969,5,9,8,2
910.969,1,4,4,0
910.97,3,6,2,0
910.971,5,7,0,-3
910.971,0,3,0,-5
910.972,-3,0,-1,-5
910.972,-8,-6,-1,-1
910.973,-5,-5,-1,2
910.974,1,0,4,7
910.974,7,6,7,9
910.975,9,6,6,8
910.975,8,4,2,4
910.976,4,1,0,3
910.976,5,2,0,3
910.977,4,1,0,3
910.978,5,1,0,4
910.978,5,2,1,4
910.979,6,4,5,6
910.979,5,4,2,3
910.98,4,2,1,2
910.98,4,2,2,3
910.981,4,2,0,1
910.982,2,2,0,0
910.982,1,1,1,0
910.983,2,2,1,0
910.983,3,4,3,2
910.984,4,6,4,3
910.984,2,3,2,1
910.985,1,0,0,0
910.985,0,0,0,0
910.986,1,0,1,2
910.987,2,2,2,3
910.987,4,3,3,3
910.988,3,4,3,3
910.988,3,5,4,3
910.989,5,8,6,3
910.99,3,6,4,4
910.99,6,4,1,2
910.991,5,5,1,0
910.991,3,6,3,0
910.992,0,5,4,0
910.992,-1,2,1,0
910.993,-1,0,1,0
910.994,0,0,2,0
910.994,0,0,1,1
910.995,0,0,2,3
910.995,2,0,2,6
910.996,5,2,2,6
910.996,6,2,0,4
910.997,3,-1,0,3
910.998,1,-1,1,8
910.998,8,5,6,9
910.999,10,7,7,8
910.999,6,3,3,4
911,2,0,1,3
911.001,3,2,2,4
911.001,7,4,0,5
911.002,17,12,0,1
911.002,14,10,-4,-6
911.003,3,3,-5,-7
911.003,-2,0,-4,-7
911.004,-5,-4,-3,-5
911.004,-5,-3,-1,-2
911.005,-2,0,1,2
911.006,0,0,2,5
911.006,4,1,4,8
911.007,6,2,3,7
911.007,7,3,4,7
911.008,8,5,6,9
911.008,9,9,9,9
911.009,12,15,12,8
911.01,11,15,9,0
911.01,1,7,3,-3
911.011,-3,2,1,-5
911.011,-3,2,2,-2
911.012,-3,1,0,-3
911.013,-4,-1,0,-3
911.013,-3,-2,-1,0
911.014,-1,-2,-1,2
911.014,3,0,0,5
911.015,5,1,1,5
911.015,5,1,0,4
911.016,5,2,0,5
911.017,6,2,1,6
911.017,5,3,3,7
911.018,7,4,4,6
911.018,5,5,5,5
911.019,2,1,3,5
911.019,2,0,3,5
911.02,3,2,4,5
911.021,3,1,2,3
911.021,1,0,0,4
911.022,7,5,0,3
911.022,8,8,1,0
911.023,1,1,0,0
911.023,1,-1,-3,0
911.024,1,0,-3,-1
911.025,0,0,-1,1
911.025,3,3,2,5
911.026,11,10,5,6
911.026,11,9,2,1
911.027,5,4,0,0
911.027,4,5,0,0
911.028,4,4,1,0
911.029,2,5,3,1
911.029,3,6,4,0
911.03,2,5,4,0
911.03,2,6,5,0
911.031,0,5,6,0
911.032,-1,4,6,0
911.032,-2,1,3,0
911.033,-2,1,3,0
911.033,0,1,3,1
911.034,0,2,3,2
911.034,0,0,0,3
911.035,0,-2,0,5
911.036,3,0,1,6
911.036,6,1,2,7
911.037,7,1,1,7
911.037,7,1,0,7
911.038,8,3,0,6
911.038,9,6,3,5
911.039,8,7,3,4
911.039,7,6,3,3
911.04,5,3,1,1
911.041,2,3,1,0
911.041,0,4,3,0
911.042,-2,1,2,0
911.042,-3,-1,0,0
911.043,-1,-2,0,1
911.044,0,0,0,2
911.044,3,2,0,3
911.045,3,2,0,3
911.045,4,2,1,5
911.046,6,4,2,5
911.046,6,5,3,4
911.047,4,4,3,4
911.048,5,6,4,4
911.048,6,7,4,2
911.049,6,9,6,2
911.049,3,7,4,1
911.05,2,5,2,0
911.05,0,3,1,-1
911.051,0,3,2,0
911.052,0,2,2,-1
911.052,-1,0,2,0
911.053,-1,0,2,1
911.053,0,2,3,3
911.054,2,2,3,3
911.054,2,2,2,3
911.055,2,0,0,3
911.056,3,-1,-2,4
911.056,6,0,-1,5
911.057,5,0,0,5
911.057,4,-1,0,9
911.058,11,4,2,11
911.059,18,13,6,7
911.059,12,10,3,4
911.06,10,8,0,0
911.06,5,5,0,-3
911.061,0,2,0,-4
911.061,-2,1,0,-3
911.062,-3,0,0,-3
911.063,-3,0,0,-2
911.063,-1,1,1,0
911.064,0,2,3,1
911.064,0,1,2,3
911.065,1,-1,0,2
911.065,3,1,2,5
911.066,7,6,6,7
911.067,7,7,6,5
911.067,6,6,6,5
911.068,5,6,5,6
911.068,9,9,4,1
911.069,7,8,3,0
911.069,2,5,2,-1
911.07,1,6,3,-2
911.07,-1,5,4,-2
911.071,-1,4,5,-1
911.072,-3,1,2,-1
911.072,-2,0,2,0
911.073,0,0,1,0
911.073,0,0,2,0
911.074,0,0,1,3
911.075,1,0,3,5
911.075,2,-2,0,6
911.076,5,-1,-1,8
911.076,9,3,3,9
911.077,10,5,4,9
911.077,9,5,3,6
911.078,7,4,3,5
911.079,3,3,4,4
911.079,0,0,1,1
911.08,-2,-4,-1,0
911.08,-1,-2,1,5
911.081,5,5,5,4
911.081,5,6,7,6
911.082,4,3,2,7
911.083,11,7,0,6
911.083,18,13,-1,-1
911.084,8,6,-3,-6
911.084,0,1,-5,-5
911.085,1,2,-4,-5
911.086,0,1,-3,-6
911.086,-2,0,-2,-2
911.087,-1,0,0,0
911.087,1,1,3,2
911.088,0,0,3,4
911.088,0,0,4,6
911.089,5,5,8,10
911.09,9,9,10,9
911.09,10,10,10,7
911.091,8,10,8,3
911.091,3,5,3,0
911.092,-1,1,1,-1
911.092,-2,0,0,-1
911.093,0,1,2,1
911.094,0,1,2,2
911.094,1,0,1,1
911.095,0,0,0,0
911.095,1,0,0,2
911.096,2,1,1,5
911.096,4,0,1,6
911.097,6,0,0,4
911.098,5,1,1,6
911.098,7,5,4,7
911.099,8,7,6,6
911.099,7,6,4,4
911.1,5,3,1,2
911.1,2,1,0,1
911.101,1,0,0,0
911.102,1,0,0,1
911.102,2,1,0,1
911.103,2,1,0,1
911.103,2,2,1,1
911.104,1,2,0,1
911.104,2,1,0,3
911.105,4,3,2,3
911.106,4,3,3,4
911.106,4,2,2,3
911.107,4,3,1,2
911.107,4,3,1,3
911.108,5,6,4,4
911.108,7,7,5,3
911.109,5,7,5,2
911.11,3,6,4,0
911.11,2,5,2,-1
911.111,0,3,2,-1
911.111,0,2,2,-1
911.112,0,1,1,0
911.112,0,0,0,0
911.113,2,2,1,1
911.114,4,4,3,3
911.114,5,5,3,3
911.115,6,4,4,4
911.115,4,2,1,3
911.116,2,0,-1,0
911.116,1,-2,-2,1
911.117,2,-2,-1,2
911.118,3,-1,0,3
911.118,3,2,3,5
911.119,3,2,5,6
911.119,4,2,4,7
911.12,5,4,6,7
911.12,6,5,5,5
911.121,6,4,3,4
911.122,5,5,2,4
911.122,12,13,3,1
911.123,10,13,2,-4
911.123,0,2,-2,-6
911.124,-4,-2,-4,-6
911.124,-4,-2,-2,-3
911.125,-3,-2,-1,-2
911.126,0,0,0,2
911.126,3,2,2,5
911.127,4,1,2,5
911.127,5,0,0,6
911.128,9,5,4,8
911.128,12,11,8,7
911.129,10,13,9,5
911.13,6,9,7,2
911.13,1,5,4,0
911.131,-1,1,0,-2
911.131,-3,0,1,-1
911.132,-2,1,3,0
911.133,0,3,4,2
911.133,0,1,2,0
911.134,0,0,0,2
911.134,5,2,0,1
911.135,7,5,0,2
911.135,5,2,-1,2
911.136,4,0,0,2
911.137,2,-2,-2,1
911.137,0,-2,0,3
911.138,3,0,4,7
911.138,7,7,11,10
911.139,9,10,10,8
911.139,6,5,4,4
911.14,2,0,0,2
911.141,3,0,0,2
911.141,5,2,0,0
911.142,3,4,0,0
911.142,1,2,0,0
911.143,2,3,2,0
911.143,1,4,3,1
911.144,1,4,4,1
911.145,1,3,2,0
911.145,-1,-2,-1,0
911.146,0,-1,0,1
911.146,1,1,1,3
911.147,3,2,4,5
911.148,3,2,4,6
911.148,4,1,4,7
911.149,5,4,6,9
911.149,12,11,8,8
911.15,13,11,6,3
911.15,7,9,3,1
911.151,6,9,3,-1
911.152,4,6,-1,-6
911.152,-2,0,-5,-9
911.153,-6,-3,-4,-5
911.153,-2,0,0,0
911.154,0,2,1,1
911.154,1,2,2,2
911.155,1,0,1,3
911.156,1,-1,0,4
911.156,4,-2,0,7
911.157,7,0,0,10
911.157,12,4,2,9
911.158,11,6,4,6
911.158,9,9,7,6
911.159,8,8,5,4
911.16,5,5,1,0
911.16,2,4,0,-1
911.161,-2,0,-1,-2
911.161,-3,-3,-2,-1
911.162,-1,0,0,0
911.163,1,1,2,2
911.163,3,3,2,3
911.164,4,3,3,4
911.164,5,3,1,3
911.165,4,2,1,3
911.165,4,3,2,2
911.166,2,2,2,3
911.166,2,1,2,3
911.167,3,2,2,4
911.168,3,3,5,4
911.168,2,3,5,4
911.169,3,5,7,4
911.169,5,8,7,6
911.17,9,10,5,2
911.17,8,10,3,-3
911.171,0,5,1,-4
911.172,-2,2,0,-5
911.172,-3,0,0,-4
911.173,-4,-1,0,-2
911.173,-2,0,3,2
911.174,1,2,5,6
911.174,5,4,5,9
911.175,10,3,0,6
911.176,11,4,-2,1
911.176,3,0,-2,0
911.177,0,-2,-1,2
911.177,0,-1,0,4
911.178,3,1,3,6
911.179,6,4,5,7
911.179,6,4,6,8
911.18,7,4,4,9
911.18,12,8,3,4
911.181,8,6,0,-2
911.181,0,0,-2,-1
911.182,0,0,-1,0
911.182,0,1,0,0
911.183,0,1,0,0
911.184,1,0,0,0
911.184,0,0,0,2
911.185,4,4,3,4
911.185,5,5,3,4
911.186,4,2,1,3
911.187,2,1,2,3
911.187,3,2,3,4
911.188,4,5,6,5
911.188,4,6,7,5
911.189,4,7,6,3
911.189,2,5,5,2
911.19,4,7,5,1
911.19,4,7,5,0
911.191,1,4,2,-1
911.192,0,4,1,0
911.192,5,7,0,-3
911.193,1,2,-1,-4
911.193,-2,0,-1,0
911.194,3,2,-1,0
911.195,2,1,0,0
911.195,1,0,1,2
911.196,3,3,4,5
911.196,4,0,1,4
911.197,2,-3,-1,5
911.197,5,-2,-1,6
911.198,8,3,2,7
911.199,11,8,6,7
911.199,8,8,8,6
911.2,5,6,6,3
911.2,1,2,4,1
911.201,0,-1,0,0
911.201,-1,-2,-1,1
911.202,3,0,-1,2
911.203,7,2,-2,0
911.203,3,0,-1,0
911.204,2,1,0,2
911.204,3,2,1,3
911.205,2,0,2,4
911.205,3,2,2,5
911.206,6,5,4,4
911.207,6,6,5,4
911.207,5,7,7,3
911.208,4,6,5,2
911.208,3,5,5,1
911.209,3,7,6,1
911.209,2,5,3,0
911.21,0,4,3,-1
911.211,0,2,1,-2
911.211,-1,0,0,0
911.212,0,3,2,0
911.212,1,3,2,1
911.213,3,5,3,0
911.214,2,5,3,0
911.214,0,3,3,0
911.215,0,-1,0,1
911.215,0,-4,-2,3
911.216,2,-3,-1,5
911.216,7,1,1,6
911.217,7,1,1,7
911.218,7,2,3,8
911.218,8,5,6,9
911.219,7,6,6,7
911.219,6,5,4,5
911.22,5,3,2,4
911.22,4,3,2,3
911.221,5,2,0,3
911.222,8,4,-2,-1
911.222,7,5,-3,-3
911.223,0,0,-4,-4
911.223,-3,-3,-4,-1
911.224,0,-1,-1,0
911.224,2,1,1,1
911.225,3,3,3,4
911.226,4,4,3,5
911.226,7,6,4,6
911.227,7,6,3,2
911.227,4,5,3,1
911.228,2,4,4,2
911.228,2,6,6,3
911.229,4,8,7,2
911.23,2,5,5,1
911.23,2,7,5,0
911.231,0,3,2,-2
911.231,-1,1,2,0
911.232,0,1,2,1
911.232,0,0,0,1
911.233,3,2,0,1
911.234,4,3,2,2
911.234,3,2,2,3
911.235,4,3,1,2
911.235,2,1,0,1
911.236,0,0,0,1
911.236,1,-2,0,4
911.237,3,-1,0,6
911.238,6,1,3,8
911.238,8,7,7,8
911.239,8,7,6,5
911.239,4,4,4,3
911.24,4,4,4,4
911.24,5,5,2,2
911.241,2,1,0,0
911.242,2,0,-1,-1
911.242,2,2,0,-1
911.243,2,3,1,1
911.243,2,1,1,0
911.244,0,-1,-1,1
911.245,1,-1,-2,3
911.245,7,2,-1,3
911.246,7,4,1,1
911.246,4,4,3,3
911.247,2,4,5,2
911.247,0,5,8,3
911.248,0,5,8,4
911.249,4,8,8,4
911.249,5,8,6,2
911.25,1,0,0,1
911.25,3,2,0,2
911.251,8,7,1,1
911.251,6,5,0,0
911.252,3,4,0,0
911.253,3,5,0,-1
911.253,1,4,1,0
911.254,2,3,1,0
911.254,1,1,0,-2
911.255,0,0,0,0
911.255,0,0,0,2
911.256,0,-2,0,3
911.257,2,-3,0,5
911.257,5,-1,0,8
911.258,11,5,5,11
911.258,12,9,8,9
911.259,9,7,6,6
911.26,5,2,1,1
911.26,1,1,1,0
911.261,1,1,1,0
911.261,0,0,0,0
911.262,0,1,2,1
911.262,0,1,2,2
911.263,1,0,0,3
911.263,2,1,2,3
911.264,3,2,1,4
911.265,5,3,2,4
911.265,5,6,3,3
911.266,6,9,6,1
911.266,3,5,2,0
911.267,1,1,0,0
911.267,2,2,0,0
911.268,2,3,2,1
911.269,3,5,6,2
911.269,3,5,4,2
911.27,3,5,3,1
911.27,2,4,3,1
911.271,1,3,3,0
911.272,-1,1,2,0
911.272,0,2,3,2
911.273,2,3,3,2
911.273,3,4,4,3
911.274,2,2,2,2
911.274,1,0,0,2
911.275,3,1,0,4
911.276,5,1,0,3
911.276,4,1,1,4
911.277,4,-1,-1,4
911.277,4,-1,-1,5
911.278,7,3,1,6
911.278,9,6,4,6
911.279,8,7,5,5
911.28,5,4,2,2
911.28,3,2,2,3
911.281,3,2,0,1
911.281,4,5,0,0
911.282,3,5,3,1
911.282,2,2,1,0
911.283,0,0,-1,-1
911.284,0,0,0,0
911.284,0,0,0,0
911.285,0,0,2,2
911.285,1,1,2,4
911.286,2,3,5,5
911.286,4,4,6,4
911.287,1,2,5,5
911.288,4,4,5,6
911.288,7,7,6,4
911.289,6,8,5,4
911.289,8,10,5,3
911.29,10,12,3,-1
911.291,5,9,0,-1
911.291,7,9,-1,-5
911.292,3,6,-2,-8
911.292,-3,0,-4,-8
911.293,-7,-2,-3,-6
911.293,-5,-1,0,0
911.294,-2,0,0,1
911.295,-1,-3,0,4
911.295,4,0,0,6
911.296,7,3,4,9
911.296,9,6,5,8
911.297,8,5,6,8
911.297,7,4,4,7
911.298,7,4,2,6
911.298,5,2,1,4
911.299,2,0,1,3
911.3,1,0,2,4
911.3,1,0,3,5
911.301,3,1,3,3
911.302,1,1,2,4
911.302,3,2,2,4
911.303,5,4,3,3
911.303,3,0,-1,2
911.304,4,0,-1,4
911.304,10,7,1,4
911.305,10,8,0,-1
911.305,1,1,-1,-1
911.306,0,0,-1,0
911.307,0,0,-1,0
911.307,0,0,0,0
911.308,1,2,2,3
911.308,4,6,7,5
911.309,8,12,10,6
911.309,7,11,9,3
911.31,4,8,6,0
911.311,0,4,2,-2
911.311,-1,2,1,-2
911.312,0,2,2,-1
911.312,-1,1,0,0
911.313,-1,0,0,0
911.313,0,0,1,2
911.314,2,0,2,5
911.315,4,1,3,6
911.315,6,1,0,5
911.316,4,1,1,4
911.316,5,1,1,5
911.317,5,0,0,5
911.317,4,1,1,6
911.318,7,3,3,5
911.319,5,5,4,5
911.319,3,2,3,4
911.32,3,4,4,5
911.32,3,3,3,4
911.321,3,3,2,1
911.321,1,1,1,3
911.322,5,3,0,2
911.323,7,6,0,0
911.323,3,4,0,-2
911.324,0,0,-2,-2
911.324,-1,-1,-2,-1
911.325,-1,-2,-2,0
911.325,0,-2,-1,3
911.326,6,2,3,8
911.327,11,9,4,7
911.327,12,12,6,5
911.328,8,10,6,2
911.328,3,7,5,2
911.329,3,7,6,0
911.329,1,6,5,-1
911.33,0,5,3,-2
911.331,-2,3,3,-3
911.331,-2,2,3,0
911.332,-1,1,1,0
911.332,0,1,1,0
911.333,0,1,1,0
911.333,1,2,2,1
911.334,1,0,0,2
911.335,2,-1,0,4
911.335,4,0,0,6
911.336,7,2,2,7
911.336,8,2,2,8
911.337,10,3,1,6
911.338,7,0,0,5
911.338,7,5,4,6
911.339,7,6,4,5
911.339,6,5,3,3
911.34,4,3,2,1
911.34,2,2,1,0
911.341,0,0,-1,0
911.342,0,0,0,0
911.342,1,1,1,1
911.343,2,2,2,3
911.343,4,3,2,2
911.344,2,1,1,1
911.344,2,0,0,2
911.345,3,2,1,2
911.346,5,4,3,4
911.346,5,3,3,2
911.347,1,1,3,2
911.347,0,4,5,3
911.348,1,4,7,4
911.349,1,5,8,4
911.349,0,3,6,4
911.35,0,0,4,5
911.35,5,4,3,5
911.351,11,10,4,5
911.351,12,12,1,0
911.352,6,5,-1,-1
911.352,6,6,-2,-3
911.353,3,4,-4,-9
911.354,-4,-2,-6,-8
911.354,-6,-3,-2,-3
911.355,-3,-2,0,0
911.355,0,-3,0,4
911.356,3,-1,1,7
911.357,6,1,2,7
911.357,8,3,4,9
911.358,9,4,5,11
911.358,13,9,6,12
911.359,17,13,5,6
911.359,10,8,2,1
911.36,3,2,0,-1
911.36,0,0,-1,-2
911.361,0,1,0,-1
911.362,-3,-1,0,-2
911.362,-3,-1,0,-1
911.363,-2,0,1,1
911.363,0,3,4,3
911.364,2,0,1,2
911.365,0,-2,0,2
911.365,1,0,1,5
911.366,5,5,7,9
911.366,10,11,11,9
911.367,11,14,11,5
911.367,7,11,9,0
911.368,-1,2,3,-2
911.369,-4,-1,0,-3
911.369,-6,-2,0,-1
911.37,-5,0,4,1
911.37,0,3,5,6
911.371,5,3,1,6
911.372,11,7,0,3
911.372,11,9,1,2
911.373,11,10,0,-1
911.373,6,5,-2,-3
911.374,1,2,-3,-3
911.374,0,0,-3,-3
911.375,0,-1,-2,-1
911.375,0,0,-1,1
911.376,2,0,0,4
911.377,3,-2,-2,4
911.377,4,-2,-1,6
911.378,7,4,5,8
911.378,8,9,10,9
911.379,7,7,8,8
911.379,6,5,6,7
911.38,5,2,3,3
911.381,1,0,-1,0
911.381,0,-2,0,0
911.382,0,0,1,2
911.382,2,2,4,4
911.383,4,3,3,2
911.383,2,2,2,1
911.384,1,1,1,1
911.385,3,3,2,2
911.385,5,6,3,3
911.386,7,6,2,2
911.386,5,2,0,0
911.387,2,1,-1,0
911.387,3,4,2,1
911.388,3,5,4,2
911.389,3,6,5,2
911.389,0,2,4,1
911.39,0,4,4,0
911.39,0,5,7,2
911.391,0,4,6,1
911.391,0,2,4,1
911.392,-1,0,2,0
911.393,0,0,2,2
911.393,1,3,4,5
911.394,7,5,4,9
911.394,15,10,1,3
911.395,10,5,-2,-2
911.396,1,-1,-5,-2
911.396,0,-3,-4,0
911.397,0,-2,-2,2
911.397,4,0,0,4
911.398,7,5,3,5
911.398,6,6,5,5
911.399,5,5,4,4
911.4,4,3,3,3
911.4,3,2,2,2
911.401,2,2,2,2
911.401,3,3,2,2
911.402,2,2,1,0
911.402,1,0,0,0
911.403,0,-1,-1,1
911.404,3,1,0,2
911.404,3,1,0,2
911.405,4,2,1,3
911.405,4,2,1,3
911.406,4,1,1,4
911.406,6,4,3,6
911.407,8,7,7,5
911.408,5,7,6,4
911.408,4,7,6,2
911.409,5,8,7,2
911.409,4,8,5,0
911.41,1,5,3,0
911.41,0,1,0,-3
911.411,-2,0,-1,-3
911.412,0,0,0,-2
911.412,0,2,1,0
911.413,1,3,2,1
911.414,2,4,4,2
911.414,2,2,2,2
911.414,1,0,0,2
911.415,2,-1,0,4
911.416,4,1,3,5
911.416,3,0,3,5
911.417,3,0,2,6
911.418,4,0,2,7
911.418,7,4,4,6
911.419,8,6,5,6
911.419,7,5,3,4
911.42,3,2,2,1
911.42,1,0,0,1
911.421,0,0,0,2
911.421,1,0,0,3
911.422,6,3,0,3
911.423,8,5,1,2
911.423,6,4,1,2
911.424,5,4,0,0
911.424,2,2,0,0
911.425,0,1,0,0
911.425,0,1,0,2
911.426,2,1,2,4
911.427,5,3,2,2
911.427,3,3,2,3
911.428,4,4,3,4
911.428,6,7,4,6
911.429,10,12,5,4
911.43,10,11,3,-1
911.43,3,7,2,-5
911.431,-4,0,0,-5
911.431,-7,-2,0,-3
911.432,-5,-1,1,-1
911.432,-1,1,2,1
911.433,0,1,3,4
911.433,3,4,5,5
911.434,5,4,5,6
911.435,5,2,2,6
911.435,6,2,1,5
911.436,7,2,1,5
911.436,5,0,0,7
911.437,10,5,1,4
911.437,8,5,1,2
911.438,4,3,0,1
911.439,0,0,0,2
911.439,1,1,2,4
911.44,4,3,2,4
911.44,6,4,1,3
911.441,5,3,0,2
911.441,8,8,4,2
911.442,7,7,2,0
911.443,1,2,0,-1
911.443,-2,0,1,0
911.444,-2,-2,0,0
911.444,-1,-4,-2,0
911.445,1,0,0,2
911.446,2,1,1,3
911.446,4,3,1,4
911.447,5,4,3,5
911.447,8,7,6,5
911.448,7,6,5,4
911.448,5,7,5,4
911.449,4,7,6,2
911.45,1,5,5,1
911.45,0,5,6,2
911.451,0,4,5,1
911.451,0,2,3,0
911.452,-1,0,-1,0
911.452,-1,-2,-1,3
911.453,7,4,0,4
911.454,14,12,3,1
911.454,6,6,0,-1
911.455,0,-1,-2,-1
911.455,-1,-3,-3,-1
911.456,-2,-4,-1,0
911.456,-1,-3,0,4
911.457,2,0,3,8
911.458,7,5,7,10
911.458,10,8,9,9
911.459,8,8,7,5
911.459,5,4,4,3
911.46,3,3,2,2
911.46,3,3,2,0
911.461,1,2,0,0
911.462,0,-2,-3,0
911.462,0,-2,-3,0
911.463,2,0,0,2
911.463,3,2,1,3
911.464,4,2,1,3
911.464,4,2,1,3
911.465,2,0,0,3
911.466,4,1,0,3
911.466,5,4,4,5
911.467,8,7,4,4
911.467,6,6,4,3
911.468,5,6,4,2
911.469,4,7,6,2
911.469,4,7,5,1
911.47,2,6,4,0
911.47,1,5,3,0
911.471,0,3,1,-2
911.471,-1,2,0,-2
911.472,0,1,0,0
911.473,0,2,1,0
911.473,2,4,2,0
911.474,1,4,2,1
911.474,1,2,0,1
911.475,1,0,0,2
911.475,4,1,1,3
911.476,5,2,2,5
911.477,6,3,2,5
911.477,5,1,1,4
911.478,4,2,2,4
911.478,4,4,5,5
911.479,5,5,5,5
911.479,4,2,2,3
911.48,3,1,1,3
911.481,2,-1,0,3
911.481,2,-3,-2,2
911.482,2,0,0,4
911.482,5,3,3,5
911.483,7,5,3,5
911.483,5,3,1,2
911.484,4,3,0,1
911.485,3,4,1,0
911.485,0,3,2,0
911.486,0,2,2,0
911.486,0,1,2,1
911.487,0,0,3,3
911.487,0,1,6,4
911.488,3,5,7,7
911.489,7,10,9,7
911.489,11,12,8,5
911.49,11,13,5,0
911.49,7,9,0,-4
911.491,0,3,-2,-7
911.491,-4,-2,-4,-6
911.492,-4,-3,-4,-2
911.493,0,0,-2,0
911.493,5,4,1,0
911.494,5,4,2,1
911.494,4,4,3,4
911.495,4,1,1,2
911.495,0,-5,-4,2
911.496,2,-3,-2,4
911.497,4,0,2,7
911.497,4,1,4,9
911.498,7,4,7,10
911.498,8,6,7,8
911.499,6,5,6,7
911.499,5,4,6,6
911.5,5,4,3,3
911.501,2,1,1,0
911.501,0,0,0,3
911.502,6,3,-1,1
911.502,8,6,0,-1
911.503,3,4,0,-1
911.503,0,3,1,-2
911.504,-1,1,0,-1
911.505,-1,0,0,0
911.505,0,0,1,1
911.506,2,2,4,5
911.506,5,4,4,4
911.507,4,3,2,4
911.508,4,3,2,2
911.508,5,7,5,4
911.509,7,11,9,3
911.509,6,10,8,1
911.51,2,6,4,0
911.51,-1,-1,-2,-1
911.511,0,0,0,-1
911.512,0,3,1,0
911.512,0,3,2,0
911.513,0,2,2,2
911.513,2,2,2,2
911.514,1,0,0,1
911.514,2,0,0,3
911.515,2,-1,-1,3
911.516,2,-2,0,5
911.516,5,0,0,7
911.517,8,0,0,8
911.517,11,4,0,8
911.518,15,10,5,7
911.518,12,11,7,5
911.519,8,9,6,2
911.52,1,4,3,0
911.52,-1,0,0,-2
911.521,-3,-2,-2,-1
911.521,-2,-1,0,0
911.522,1,1,0,1
911.522,0,0,1,0
911.523,0,0,1,0
911.524,-1,0,2,3
911.524,3,2,4,6
911.525,5,4,4,5
911.525,5,4,3,4
911.526,4,2,1,4
911.526,5,3,3,5
911.527,10,7,4,7
911.528,14,13,4,3
911.528,8,10,3,-1
911.529,0,2,1,-2
911.529,-1,3,2,-1
911.53,0,5,3,-2
911.53,0,4,4,-1
911.531,0,7,6,0
911.532,0,3,2,-1
911.532,-1,-2,-3,-1
911.533,0,-2,-3,0
911.533,3,0,-1,2
911.534,5,5,3,4
911.535,5,4,3,4
911.535,2,0,3,5
911.536,2,-1,1,5
911.536,2,-1,0,6
911.537,5,0,1,6
911.537,7,4,4,8
911.538,9,9,8,8
911.539,10,9,6,7
911.539,9,7,1,1
911.54,3,0,-4,-2
911.54,1,-2,-4,0
911.541,1,0,-1,1
911.541,2,1,0,2
911.542,1,1,1,2
911.543,2,3,3,2
911.543,1,3,4,2
911.544,1,1,1,1
911.544,0,0,0,1
911.545,1,0,1,2
911.545,2,0,1,4
911.546,4,0,1,6
911.547,6,3,2,5
911.547,6,4,4,5
911.548,6,6,4,4
911.548,6,9,7,4
911.549,6,11,9,3
911.549,3,8,6,0
911.55,0,4,2,-3
911.551,-1,2,0,-3
911.551,-1,2,0,-1
911.552,1,3,1,0
911.552,1,3,1,0
911.553,0,2,0,0
911.554,1,2,2,0
911.554,1,2,2,2
911.555,2,2,1,3
911.555,3,1,1,3
911.556,3,0,0,3
911.556,2,-1,0,3
911.557,2,-1,0,5
911.557,5,1,3,8
911.558,7,3,4,9
911.559,8,3,3,7
911.559,8,6,5,6
911.56,7,8,6,4
911.56,4,2,2,2
911.561,2,1,0,1
911.562,1,0,0,2
911.562,5,2,-2,1
911.563,7,5,-1,0
911.563,5,4,-1,-1
911.564,2,2,-1,-1
911.564,0,-1,-2,-1
911.565,0,0,0,1
911.565,2,3,2,3
911.566,3,4,4,3
911.567,4,5,5,4
911.567,3,5,6,4
911.568,3,5,6,3
911.568,1,6,8,4
911.569,1,4,6,5
911.57,3,6,6,6
911.57,9,11,6,2
911.571,5,7,3,-2
911.571,-2,0,0,-2
911.572,-1,1,0,0
911.572,1,2,0,0
911.573,0,0,0,0
911.574,0,0,-1,2
911.574,4,2,0,3
911.575,7,3,0,2
911.575,6,3,0,1
911.576,2,0,-1,1
911.576,1,0,0,2
911.577,1,-1,0,5
911.578,4,1,4,8
911.578,7,5,6,8
911.579,7,6,6,7
911.579,6,6,6,5
911.58,4,3,3,3
911.58,2,0,0,0
911.581,0,0,0,0
911.582,0,0,1,1
911.582,1,1,2,2
911.583,1,1,2,2
911.583,2,1,1,3
911.584,3,1,1,3
911.584,5,4,3,5
911.585,9,7,3,6
911.586,15,11,1,1
911.586,8,9,0,-3
911.587,0,3,0,-4
911.587,0,5,2,-2
911.588,-2,1,0,-1
911.589,-2,-1,0,0
911.589,-1,0,2,3
911.59,4,5,6,7
911.59,6,7,6,5
911.591,5,6,6,3
911.591,4,5,4,1
911.592,2,4,2,2
911.593,7,6,0,2
911.593,12,12,1,-1
911.594,4,5,0,-5
911.594,-4,-1,-1,-3
911.595,-6,-4,-1,-2
911.595,-6,-10,-4,1
911.596,-2,-8,-3,5
911.597,3,0,4,10
911.597,9,5,8,12
911.598,11,9,9,11
911.598,11,8,7,8
911.599,8,5,4,4
911.599,5,4,3,3
911.6,4,2,2,2
911.601,3,0,0,0
911.601,0,-1,-1,-1
911.602,0,-1,-1,0
911.602,3,2,1,2
911.603,4,5,3,3
911.603,3,3,2,1
911.604,1,1,1,1
911.605,1,1,1,1
911.605,3,2,0,1
911.606,3,3,1,1
911.606,2,3,1,1
911.607,4,4,4,3
911.607,4,3,2,3
911.608,4,3,1,3
911.609,7,9,7,4
911.609,6,10,9,2
911.61,2,8,7,2
911.61,3,6,4,0
911.611,2,5,2,-1
911.612,0,2,0,-3
911.612,-1,0,0,-2
911.613,0,1,0,0
911.613,1,2,1,0
911.614,1,2,0,0
911.614,2,0,0,1
911.615,1,-1,-1,2
911.615,1,-4,-2,5
911.616,5,0,-1,6
911.617,9,3,2,8
911.617,9,4,3,8
911.618,10,8,7,9
911.618,9,7,7,7
911.619,6,2,1,3
911.62,4,2,0,1
911.62,2,3,0,-1
911.621,1,2,0,0
911.621,0,2,1,0
911.622,2,3,2,1
911.622,2,5,4,1
911.623,1,2,1,0
911.624,-1,-1,0,0
911.624,0,-1,0,2
911.625,1,1,3,3
911.625,2,1,2,5
911.626,5,5,5,6
911.626,6,4,4,5
911.627,5,4,3,5
911.628,7,4,2,5
911.628,11,9,2,2
911.629,9,10,3,-2
911.629,2,6,2,-2
911.63,0,5,3,-2
911.63,-3,3,3,-3
911.631,-4,0,0,-2
911.632,-3,0,1,0
911.632,0,0,2,0
911.633,0,2,4,3
911.633,2,2,3,4
911.634,3,2,3,6
911.634,7,3,2,8
911.635,12,6,0,5
911.636,8,2,-1,2
911.636,4,0,-3,0
911.637,1,-3,-3,1
911.637,1,0,0,3
911.638,6,5,4,6
911.639,8,8,7,7
911.639,9,7,5,3
911.64,3,3,2,1
911.64,0,0,0,0
911.641,-1,-2,0,1
911.641,0,0,1,3
911.642,1,2,4,4
911.643,2,1,3,3
911.643,2,1,3,4
911.644,4,2,2,5
911.644,8,5,2,4
911.645,6,4,0,1
911.645,4,3,0,1
911.646,4,3,1,2
911.647,5,3,0,1
911.647,5,6,2,0
911.648,3,6,5,0
911.648,1,5,6,0
911.649,0,4,5,1
911.649,-1,4,5,1
911.65,0,4,6,4
911.651,5,6,3,4
911.651,11,10,2,0
911.652,5,5,0,-2
911.652,0,0,-2,-4
911.653,-2,-1,0,0
911.653,0,0,0,0
911.654,0,1,1,2
911.655,3,2,2,4
911.655,4,2,1,4
911.656,3,0,0,3
911.656,3,0,0,5
911.657,5,1,2,7
911.657,8,4,4,8
911.658,9,6,6,7
911.659,8,5,3,5
911.659,5,3,2,2
911.66,2,1,1,2
911.66,3,3,2,2
911.661,3,4,2,1
911.661,3,3,1,0
911.662,0,1,-1,-1
911.663,-2,-3,-2,-1
911.663,0,0,0,1
911.664,3,2,1,3
911.664,5,4,2,3
911.665,4,2,2,4
911.666,1,0,2,4
911.666,2,1,3,5
911.667,4,2,5,5
911.667,5,6,7,7
911.668,8,9,8,4
911.668,5,11,10,4
911.669,2,4,4,0
911.669,0,1,1,-1
911.67,0,2,2,0
911.671,0,2,1,0
911.671,0,2,2,1
911.672,1,3,2,0
911.672,1,2,0,0
911.673,0,1,0,1
911.674,3,2,0,4
911.674,7,5,2,5
911.675,6,1,-2,2
911.675,5,1,-2,1
911.676,3,0,-1,0
911.676,2,0,0,4
911.677,4,1,2,6
911.677,7,5,4,7
911.678,8,6,4,5
911.679,6,5,3,4
911.679,4,3,1,1
911.68,3,4,2,2
911.68,1,0,0,0
911.681,0,-2,-2,0
911.682,1,0,0,2
911.682,3,4,4,4
911.683,5,6,6,3
911.683,2,4,5,2
911.684,0,0,0,2
911.684,0,-1,0,3
911.685,2,0,0,2
911.686,5,3,2,4
911.686,6,5,4,5
911.687,11,8,4,4
911.687,9,10,4,0
911.688,4,6,2,0
911.688,3,9,6,0
911.689,2,10,7,-1
911.69,0,7,5,-1
911.69,0,6,2,-2
911.691,1,5,0,-4
911.691,-3,-2,-4,-4
911.692,-3,-4,-5,-1
911.693,1,0,0,1
911.693,2,2,2,2
911.694,2,0,0,5
911.694,4,0,1,6
911.695,8,5,5,7
911.695,6,5,5,7
911.696,4,0,2,6
911.696,4,0,1,5
911.697,4,1,3,5
911.698,5,3,5,6
911.698,4,3,5,4
911.699,4,4,5,5
911.699,4,2,2,3
911.7,4,0,0,2
911.701,2,0,0,1
911.701,3,2,0,1
911.702,3,3,1,1
911.702,3,3,1,1
911.703,3,4,1,1
911.703,2,2,0,0
911.704,0,0,0,0
911.705,0,0,1,1
911.705,1,0,1,3
911.706,2,2,4,5
911.706,5,3,4,5
911.707,5,4,5,5
911.707,5,6,7,6
911.708,5,6,5,4
911.709,6,8,6,2
911.709,4,7,3,0
911.71,2,6,3,0
911.71,3,7,2,2
911.711,7,9,0,-3
911.711,2,3,-2,-5
911.712,-3,-1,-4,-6
911.713,-3,-1,0,-1
911.713,-1,0,0,1
911.714,1,1,2,4
911.714,3,2,3,5
911.715,5,4,3,6
911.716,6,3,2,5
911.716,4,-1,-1,4
911.717,5,0,-1,6
911.717,9,4,1,5
911.718,7,5,4,4
911.718,5,4,4,5
911.719,3,3,4,4
911.719,2,2,3,2
911.72,1,0,0,0
911.721,0,1,0,0
911.721,1,2,3,2
911.722,0,0,1,3
911.722,1,1,3,3
911.723,2,3,5,3
911.723,2,4,7,4
911.724,2,5,6,5
911.725,1,1,2,4
911.725,5,2,0,4
911.726,8,2,-3,1
911.726,8,2,-3,0
911.727,7,6,1,1
911.727,6,7,3,1
911.728,4,5,3,0
911.729,3,5,3,0
911.729,2,7,6,1
911.73,1,9,8,0
911.73,0,8,8,0
911.731,-1,1,0,0
911.732,3,2,-2,-3
911.732,1,0,-4,-6
911.733,-3,-2,-2,-1
911.733,-1,-1,0,1
911.734,0,0,1,4
911.734,3,1,3,6
911.735,5,3,4,7
911.736,6,2,4,7
911.736,4,0,2,6
911.737,3,0,3,7
911.737,4,1,4,8
911.738,7,7,8,9
911.738,8,7,7,6
911.739,4,3,2,2
911.74,3,1,0,3
911.74,4,2,0,2
911.741,7,4,-1,0
911.741,5,4,-2,-1
911.742,2,0,-3,-1
911.742,0,0,-2,-1
911.743,0,-1,-2,0
911.744,0,0,0,0
911.744,0,-2,0,3
911.745,4,2,2,7
911.745,8,5,4,6
911.746,7,5,4,5
911.747,6,5,3,3
911.747,5,5,4,5
911.748,6,7,5,4
911.748,5,8,7,2
911.749,3,6,4,0
911.749,1,5,4,0
911.75,0,6,5,0
911.75,0,4,4,-2
911.751,-1,2,2,-1
911.752,-2,0,0,-3
911.752,-1,2,3,0
911.753,0,4,5,1
911.753,0,1,2,2
911.754,0,-1,0,2
911.754,2,-1,-1,3
911.755,5,1,0,4
911.756,6,4,2,6
911.756,8,4,2,8
911.757,11,6,1,7
911.757,12,8,1,2
911.758,7,5,1,0
911.759,1,2,0,-1
911.759,0,0,0,0
911.76,0,1,2,1
911.76,0,0,2,2
911.761,0,0,2,2
911.761,0,0,1,3
911.762,1,0,1,4
911.763,3,0,1,5
911.763,7,4,3,5
911.764,5,5,4,4
911.764,3,2,2,4
911.765,5,4,1,3
911.765,5,3,1,3
911.766,5,2,0,3
911.767,10,7,0,0
911.767,7,6,0,-2
911.768,1,3,1,0
911.768,2,5,4,1
911.769,3,7,4,0
911.769,1,7,5,0
911.77,1,7,6,0
911.771,2,6,5,0
911.771,0,3,3,0
911.772,-3,0,0,0
911.772,-2,0,0,1
911.773,0,1,2,3
911.773,3,3,2,4
911.774,5,3,2,4
911.775,4,0,0,2
911.775,3,0,0,3
911.776,5,0,0,4
911.776,6,1,0,3
911.777,6,1,1,5
911.777,6,3,2,5
911.778,5,4,4,5
911.779,4,4,4,4
911.779,4,4,4,4
911.78,2,3,4,2
911.78,1,1,3,4
911.781,2,1,1,1
911.781,2,2,2,2
911.782,2,1,1,1
911.783,1,1,1,2
911.783,0,0,0,2
911.784,1,0,0,2
911.784,3,1,0,2
911.785,3,1,0,2
911.785,3,1,1,5
911.786,8,5,2,5
911.787,10,9,3,3
911.787,7,7,4,2
911.788,3,5,3,2
911.788,3,6,5,1
911.789,2,6,4,0
911.79,2,6,4,0
911.79,1,5,3,-1
911.791,0,4,3,-1
911.791,0,3,2,-1
911.792,0,1,0,-1
911.792,0,0,0,0
911.793,0,1,0,0
911.793,2,1,1,2
911.794,3,2,1,3
911.795,3,0,0,4
911.795,4,1,0,4
911.796,5,1,0,5
911.796,6,2,0,5
911.797,6,2,1,6
911.797,6,3,3,6
911.798,5,4,5,6
911.799,4,3,4,3
911.799,2,1,2,3
911.8,3,3,2,3
911.8,2,1,1,2
911.801,1,0,2,3
911.802,6,4,2,3
911.802,7,6,2,2
911.803,4,5,1,0
911.803,2,2,0,-1
911.804,0,-1,-2,-1
911.804,0,-1,-2,-1
911.805,0,-1,-1,1
911.806,2,2,2,4
911.806,5,4,5,6
911.807,9,6,5,7
911.807,8,6,5,4
911.808,7,9,7,3
911.808,6,12,9,2
911.809,2,9,6,-1
911.81,-2,1,1,-3
911.81,-4,-2,-1,-1
911.811,-2,-1,0,0
911.811,0,0,1,1
911.812,2,2,3,4
911.812,5,6,5,4
911.813,4,7,5,4
911.814,5,6,3,1
911.814,1,1,0,-1
911.815,-2,-2,-2,0
911.815,0,0,0,3
911.816,1,0,1,4
911.816,2,-2,0,6
911.817,4,-2,-1,7
911.818,8,3,3,11
911.818,18,12,5,11
911.819,20,13,2,4
911.819,12,8,-1,0
911.82,6,3,-4,-4
911.82,-1,0,-3,-3
911.821,-2,0,0,0
911.822,0,0,0,0
911.822,2,2,2,1
911.823,3,4,4,3
911.823,3,4,4,2
911.824,0,1,1,0
911.825,0,0,0,0
911.825,0,0,2,3
911.826,2,2,2,4
911.826,4,3,3,3
911.827,3,3,4,4
911.827,3,3,4,4
911.828,4,4,5,5
911.829,4,6,6,5
911.829,5,5,5,4
911.83,4,7,7,4
911.83,4,8,6,1
911.831,1,6,4,0
911.832,0,5,4,-1
911.832,-1,2,1,-2
911.833,-3,-2,-2,-2
911.833,-1,-1,-1,0
911.835,2,1,0,1
911.835,2,2,0,3
911.835,4,2,1,3
911.836,3,0,0,3
911.836,4,0,0,5
911.837,6,2,2,6
911.837,6,1,1,5
911.838,7,3,2,6
911.838,9,6,5,6
911.839,7,6,4,4
911.839,5,4,3,1
911.84,0,0,0,0
911.841,0,0,0,1
911.841,0,-2,-1,1
911.842,2,-1,0,3
911.842,5,5,5,6
911.843,7,7,5,4
911.843,8,6,1,2
911.844,5,3,-1,0
911.845,1,0,-3,-2
911.845,0,-1,-3,-1
911.846,0,0,-1,1
911.846,5,3,2,5
911.847,7,6,5,6
911.848,8,8,5,4
911.848,7,9,6,3
911.849,4,8,6,0
911.849,2,6,5,1
911.85,1,6,5,0
911.85,0,4,3,-2
911.851,-2,0,0,-2
911.852,-3,-1,0,-1
911.852,-1,0,2,1
911.853,0,4,5,2
911.853,0,3,5,3
911.854,1,2,4,5
911.854,1,-1,0,5
911.855,3,-3,-2,7
911.856,12,5,1,7
911.856,13,8,0,2
911.857,6,3,1,3
911.857,3,2,3,5
911.858,4,4,4,4
911.858,3,3,2,2
911.859,2,1,1,1
911.86,2,1,0,1
911.86,1,0,1,2
911.861,2,1,0,2
911.861,3,1,0,1
911.862,3,3,1,2
911.862,4,3,1,1
911.863,3,3,1,2
911.864,2,1,1,1
911.864,2,1,0,2
911.865,3,1,0,3
911.865,6,4,2,4
911.866,5,5,4,4
911.867,4,4,3,2
911.867,4,5,2,1
911.868,3,4,4,2
911.868,5,8,6,3
911.869,7,10,8,2
911.869,2,6,3,-1
911.87,-1,0,0,-3
911.87,-2,0,0,-2
911.871,-1,1,2,1
911.872,1,3,2,4
911.872,6,6,2,1
911.873,4,4,1,1
911.873,1,1,1,1
911.874,1,0,1,3
911.875,2,1,1,3
911.875,3,1,0,4
911.876,4,0,1,5
911.876,5,1,1,6
911.877,6,1,1,4
911.877,5,3,3,5
911.878,4,4,5,5
911.879,5,4,4,4
911.879,3,2,2,3
911.88,2,-1,-1,2
911.88,3,0,0,2
911.881,3,2,1,3
911.881,5,5,5,3
911.882,5,5,3,2
911.883,2,2,1,2
911.883,2,1,0,1
911.884,1,0,0,0
911.884,2,1,0,0
911.885,3,3,2,2
911.885,5,6,3,2
911.886,3,4,1,0
911.887,0,1,0,-1
911.887,0,0,1,1
911.888,2,3,5,6
911.888,7,9,10,7
911.889,6,8,8,5
911.889,6,9,6,5
911.89,8,8,3,2
911.891,7,8,2,-2
911.891,0,2,-2,-4
911.892,0,0,-3,-3
911.892,1,1,-3,-4
911.893,0,0,-1,-2
911.893,-1,0,0,0
911.894,-2,-2,1,1
911.895,0,-1,1,4
911.895,0,-3,1,6
911.896,2,-1,3,8
911.896,5,1,5,10
911.897,8,2,5,10
911.898,9,6,7,10
911.898,10,7,6,12
911.899,16,12,4,8
911.899,15,10,1,0
911.9,4,3,-2,-4
911.9,-2,-1,-3,-4
911.901,-3,-3,-3,-4
911.902,-5,-4,-3,-2
911.902,-3,-4,-1,1
911.903,0,0,1,5
911.903,4,3,4,6
911.904,6,4,4,5
911.904,6,7,6,6
911.905,6,8,7,6
911.906,8,8,5,3
911.906,5,3,0,0
911.907,2,2,0,-1
911.907,1,3,2,0
911.908,0,3,2,0
911.908,1,5,4,1
911.909,2,8,6,1
911.91,3,9,6,2
911.91,2,2,0,0
911.911,1,0,-2,0
911.911,2,2,0,1
911.912,4,5,2,1
911.912,3,3,1,0
911.913,2,3,2,0
911.914,1,3,2,1
911.914,1,2,1,2
911.915,2,1,0,2
911.915,1,0,0,2
911.916,2,0,0,5
911.916,4,0,2,7
911.917,7,2,2,7
911.918,8,6,6,8
911.918,8,6,5,5
911.919,5,4,3,2
911.919,2,1,1,1
911.92,0,0,1,0
911.92,0,0,0,1
911.921,1,0,2,2
911.922,2,2,2,2
911.922,1,2,2,2
911.923,2,2,2,3
911.923,4,2,0,3
911.924,5,1,0,4
911.924,9,5,0,2
911.925,7,3,-1,0
911.926,3,1,-1,0
911.926,0,-1,-1,2
911.927,4,3,2,5
911.927,7,7,5,5
911.928,6,9,8,4
911.928,5,9,9,2
911.929,2,8,7,0
911.93,0,6,6,0
911.93,0,5,4,-1
911.931,-3,3,4,-2
911.931,-3,0,1,0
911.932,-1,1,1,0
911.932,1,1,0,0
911.933,1,2,0,1
911.934,1,0,0,2
911.934,2,-3,-3,3
911.935,5,-2,-2,5
911.935,8,4,3,7
911.936,10,7,4,7
911.937,8,5,2,6
911.937,8,4,1,4
911.938,8,6,2,3
911.938,4,2,0,0
911.939,1,-2,-3,0
911.939,2,0,0,2
911.94,4,3,2,3
911.941,4,4,2,2
911.941,2,1,1,0
911.942,0,0,0,1
911.942,0,0,2,2
911.943,1,2,4,3
911.943,0,0,3,3
911.944,0,0,3,4
911.945,1,0,3,6
911.945,4,1,2,7
911.946,9,5,3,7
911.946,12,9,3,3
911.947,8,6,2,2
911.947,7,7,2,2
911.948,10,12,3,0
911.949,8,11,2,-3
911.949,1,7,1,-6
911.95,-2,4,1,-6
911.95,-6,0,-1,-7
911.951,-8,-1,1,-2
911.951,-5,0,3,0
911.952,-2,1,5,3
911.953,0,1,5,5
911.953,2,1,4,6
911.954,3,1,4,8
911.954,8,2,3,10
911.955,14,4,-2,6
911.955,13,3,-3,3
911.956,7,1,-2,2
911.957,3,0,0,2
911.957,1,-1,0,3
911.958,2,1,3,5
911.958,4,5,6,7
911.959,5,6,9,6
911.959,3,6,8,4
911.96,0,1,4,1
911.961,0,1,2,1
911.961,0,1,1,3
911.962,4,2,0,2
911.962,8,6,0,0
911.963,3,1,-2,-2
911.964,0,-1,-1,0
911.964,0,-1,0,1
911.965,3,2,2,4
911.965,4,3,3,5
911.966,6,5,2,3
911.966,7,5,2,3
911.967,7,7,4,2
911.968,6,8,4,3
911.968,8,11,6,1
911.969,4,10,4,-2
911.969,0,4,1,-2
911.97,-1,2,0,-1
911.97,-2,0,0,0
911.971,0,0,0,0
911.971,0,2,1,1
911.972,1,3,3,2
911.973,4,5,4,4
911.973,3,2,3,3
911.974,0,0,0,2
911.974,0,-2,-1,2
911.975,1,-1,0,5
911.976,5,1,2,6
911.976,6,1,2,7
911.977,7,2,2,6
911.977,8,6,5,6
911.978,8,10,9,6
911.978,6,7,6,4
911.979,2,2,0,1
911.98,0,-1,-1,0
911.98,0,-2,-3,0
911.981,2,0,0,2
911.981,5,4,2,2
911.982,4,5,2,2
911.982,4,4,2,1
911.983,2,0,0,0
911.984,2,0,-1,1
911.984,2,0,-1,1
911.985,2,0,0,2
911.985,1,1,2,3
911.986,3,2,2,4
911.987,5,4,4,5
911.987,5,5,5,5
911.988,5,6,6,5
911.988,6,9,7,4
911.989,4,7,7,4
911.989,3,6,5,1
911.99,1,3,2,0
911.991,4,4,0,-1
911.991,3,4,0,-3
911.992,0,2,0,-2
911.992,0,1,0,-1
911.993,0,2,1,0
911.993,1,1,2,1
911.994,1,2,1,2
911.995,2,1,1,2
911.995,2,0,0,2
911.996,3,0,0,4
911.996,3,0,1,4
911.997,4,0,1,6
911.997,8,5,5,9
911.998,9,7,7,7
911.998,7,7,5,4
911.999,3,3,2,2
912,3,4,2,0
912,1,3,2,0
912.001,0,0,0,0
912.001,-1,-1,-1,-1
912.002,0,-1,-1,1
912.003,0,0,0,3
912.003,3,1,1,4
912.004,7,3,1,6
912.004,8,5,2,5
912.005,7,4,1,2
912.006,4,2,0,1
912.006,3,2,1,2
912.007,4,4,3,2
912.007,3,4,4,2
912.008,2,4,5,3
912.008,4,7,7,4
912.009,5,7,5,2
912.009,2,6,5,1
912.01,0,3,5,1
912.011,0,3,3,1
912.011,1,2,2,1
912.012,6,5,0,0
912.012,4,3,0,-1
912.013,0,1,0,0
912.013,0,0,-1,1
912.014,5,2,-2,0
912.015,4,1,-2,0
912.015,2,0,-1,2
912.016,4,1,0,3
912.016,5,1,0,5
912.017,6,2,1,5
912.017,7,5,5,7
912.018,7,7,8,8
912.019,6,5,6,6
912.019,4,5,5,3
912.02,1,1,2,0
912.02,-3,-1,0,-1
912.021,-2,0,2,1
912.021,0,3,4,3
912.022,2,3,3,4
912.023,5,3,0,4
912.023,9,4,-2,0
912.024,4,1,-3,-1
912.024,1,-1,-2,0
912.025,0,-2,-2,1
912.026,1,-2,-2,3
912.026,4,0,0,6
912.027,9,7,6,9
912.027,11,11,9,7
912.028,9,11,8,3
912.028,5,9,8,2
912.029,2,7,6,0
912.03,0,4,4,-1
912.03,-1,3,2,-1
912.031,0,4,2,-2
912.031,-1,2,2,-1
912.032,-2,0,-1,-3
912.032,-2,-2,-3,-1
912.033,0,1,0,0
912.034,1,1,0,2
912.034,3,3,3,5
912.035,5,2,2,6
912.035,7,3,2,7
912.036,8,3,1,5
912.036,7,3,3,5
912.037,6,6,6,6
912.038,6,6,6,5
912.038,3,2,2,1
912.039,0,0,0,0
912.039,0,0,1,1
912.04,0,0,0,2
912.04,3,0,-1,2
912.041,4,1,0,3
912.042,6,2,0,3
912.042,8,7,3,3
912.043,6,6,2,1
912.043,3,4,1,1
912.044,3,2,0,0
912.045,2,1,-1,-1
912.045,1,0,0,0
912.046,0,1,1,1
912.046,3,3,3,3
912.047,5,6,5,4
912.047,6,8,6,3
912.048,4,7,6,3
912.049,4,7,5,1
912.049,1,4,2,0
912.05,1,4,4,0
912.05,1,4,3,0
912.051,0,3,2,-1
912.051,0,2,2,1
912.052,2,5,3,3
912.052,4,4,1,1
912.053,2,-1,-2,0
912.054,0,-4,-4,1
912.054,1,-1,0,5
912.055,3,0,0,5
912.055,5,1,2,7
912.056,6,2,3,8
912.057,7,4,3,7
912.057,8,5,5,6
912.058,7,8,7,5
912.058,5,8,6,2
912.059,1,1,0,0
912.059,0,-1,-1,1
912.06,0,-1,0,1
912.061,2,0,0,1
912.061,2,2,1,3
912.062,3,2,1,3
912.062,5,3,2,2
912.063,2,1,0,0
912.063,2,1,0,1
912.064,2,1,1,1
912.065,3,2,1,3
912.065,4,4,3,3
912.066,4,2,1,3
912.066,3,1,0,2
912.067,4,4,3,6
912.067,10,9,5,5
912.068,11,11,4,1
912.069,3,2,0,-1
912.069,0,1,0,-1
912.07,0,5,4,0
912.07,-1,3,5,1
912.071,-1,3,5,2
912.071,0,2,4,3
912.072,0,0,2,3
912.073,3,2,2,4
912.073,8,7,1,2
912.074,7,7,1,0
912.074,5,4,0,0
912.075,2,0,-3,0
912.076,0,-1,-3,-1
912.076,0,-1,-1,2
912.077,4,1,1,4
912.077,6,4,4,7
912.078,6,5,6,7
912.078,5,3,3,5
912.079,4,2,2,4
912.079,5,4,2,3
912.08,3,2,2,2
912.081,0,0,1,1
912.081,0,0,1,1
912.082,-1,-1,1,1
912.082,0,0,2,4
912.083,3,4,5,6
912.083,5,6,5,6
912.084,7,6,4,4
912.085,9,8,1,0
912.085,2,1,-2,-2
912.086,0,0,0,0
912.086,1,1,1,1
912.087,2,3,3,3
912.088,4,5,3,3
912.088,6,8,6,5
912.089,7,9,6,3
912.089,6,7,3,0
912.09,1,2,0,-2
912.09,-1,0,0,-2
912.091,0,0,0,0
912.092,1,2,2,2
912.092,2,2,1,1
912.093,3,2,0,2
912.093,3,1,1,4
912.094,3,2,2,4
912.094,4,2,2,3
912.095,3,1,1,2
912.096,2,1,0,3
912.096,3,0,0,3
912.097,3,2,2,4
912.097,5,5,5,6
912.098,5,3,4,6
912.098,3,0,2,4
912.099,3,1,2,3
912.1,2,0,1,4
912.1,5,3,2,4
912.101,8,7,3,3
912.101,4,3,1,2
912.102,5,6,3,0
912.102,2,5,2,-1
912.103,0,2,2,0
912.104,-2,-3,-2,0
912.104,0,-4,-4,1
912.105,2,-1,-2,3
912.105,4,0,-1,5
912.106,9,5,1,8
912.106,17,15,6,5
912.107,12,13,5,1
912.108,4,6,2,-1
912.108,1,4,2,-1
912.109,0,2,1,-2
912.109,0,4,4,0
912.11,0,5,5,1
912.111,2,6,5,0
912.111,0,3,3,-1
912.112,-2,0,0,-1
912.112,0,1,2,0
912.113,1,4,3,3
912.113,2,3,3,3
912.114,2,1,2,2
912.115,1,0,0,1
912.115,2,1,2,4
912.116,4,0,0,6
912.116,7,1,0,5
912.117,6,0,0,4
912.117,7,4,2,5
912.118,8,6,5,6
912.119,8,5,3,4
912.119,6,5,3,3
912.12,3,2,1,1
912.12,0,-2,-2,0
912.121,0,-1,-1,1
912.121,2,1,1,2
912.122,3,3,4,4
912.123,2,2,3,3
912.123,2,1,1,1
912.124,1,0,0,3
912.124,3,2,2,4
