Program Time [s],data 0,data 1,data 2,data 3
892.159,2,0,0,2
892.159,6,3,1,3
892.16,6,2,0,5
892.161,6,2,1,4
892.161,5,0,1,5
892.162,4,0,1,6
892.162,4,-1,1,7
892.163,6,1,3,8
892.163,6,1,3,8
892.164,7,3,4,10
892.165,13,11,6,7
892.165,11,10,5,2
892.166,5,7,2,0
892.166,2,5,2,1
892.167,3,6,2,0
892.167,2,4,0,-2
892.168,0,1,-1,-3
892.169,0,2,0,-1
892.169,0,2,0,0
892.17,1,3,2,0
892.17,0,1,0,0
892.171,0,0,2,0
892.172,0,1,2,3
892.172,1,1,3,5
892.173,3,1,4,5
892.173,4,3,3,4
892.174,5,7,8,6
892.174,8,12,10,5
892.175,5,8,6,2
892.175,2,3,1,-1
892.176,0,1,-1,-3
892.177,0,0,-1,-3
892.177,1,4,1,-1
892.178,2,5,3,0
892.178,1,4,1,-1
892.179,-1,0,-1,-1
892.18,-1,-1,-1,0
892.18,-1,-3,-1,1
892.181,1,-5,-3,4
892.181,4,-3,-3,8
892.182,10,0,0,12
892.182,13,3,3,12
892.183,14,8,7,11
892.184,12,8,6,7
892.184,7,5,4,5
892.185,3,2,4,3
892.185,2,3,5,2
892.186,1,2,4,1
892.186,0,5,5,2
892.187,2,4,3,1
892.188,2,5,3,0
892.188,3,5,1,0
892.189,1,3,0,-1
892.189,1,0,0,0
892.19,1,1,0,1
892.19,2,1,0,0
892.191,2,3,1,0
892.192,1,2,1,0
892.192,1,1,2,3
892.193,4,3,2,3
892.193,3,2,1,2
892.194,4,6,4,3
892.194,4,6,6,1
892.195,2,5,5,2
892.196,3,7,6,3
892.196,5,6,2,-1
892.197,0,1,0,-2
892.197,-1,2,2,-1
892.198,0,5,4,0
892.198,0,2,1,-1
892.199,-1,-1,0,0
892.2,0,-1,-2,0
892.2,0,-2,-2,2
892.201,3,-1,-2,3
892.201,5,0,0,6
892.202,7,0,-1,7
892.202,6,-2,-1,8
892.203,8,1,2,10
892.204,12,8,8,12
892.204,13,12,10,10
892.205,10,10,9,7
892.205,7,7,6,4
892.206,6,6,2,1
892.207,7,8,0,-2
892.207,1,1,-4,-6
892.208,-3,-1,-4,-3
892.208,0,2,1,-1
892.209,1,5,3,0
892.209,0,3,3,0
892.21,0,1,2,0
892.211,0,1,2,2
892.211,0,0,2,2
892.212,0,1,1,2
892.212,0,1,2,3
892.213,2,2,3,5
892.213,5,5,6,7
892.214,9,11,8,7
892.215,10,11,5,1
892.215,2,3,1,0
892.216,1,2,1,-1
892.216,-1,1,0,-1
892.217,-2,1,1,-2
892.217,-3,-1,0,-1
892.218,-1,-1,-1,0
892.219,1,2,2,1
892.219,3,3,3,4
892.22,4,2,0,3
892.22,3,-1,-2,2
892.221,3,-2,-3,3
892.221,5,-1,-2,5
892.222,9,3,2,9
892.223,8,1,0,8
892.223,8,-1,-1,8
892.224,11,6,4,10
892.224,12,10,8,9
892.225,10,8,7,5
892.226,6,7,4,2
892.226,4,4,2,1
892.227,2,5,3,0
892.227,3,6,3,-1
892.228,0,4,2,-2
892.228,-1,0,0,-2
892.229,-1,1,0,-1
892.229,-1,0,0,-1
892.23,0,0,1,0
892.231,0,1,2,2
892.231,2,2,3,3
892.232,2,0,2,3
892.232,2,1,1,4
892.233,4,2,1,4
892.233,7,6,5,6
892.234,10,13,10,6
892.235,8,10,7,1
892.235,1,4,3,-3
892.236,-6,-2,1,-4
892.236,-9,-5,0,-3
892.237,-8,-5,1,1
892.237,-2,1,5,5
892.238,2,3,6,6
892.239,4,4,4,6
892.239,7,5,3,7
892.24,13,7,0,5
892.24,15,8,-3,0
892.241,8,1,-8,-1
892.242,5,0,-8,0
892.242,8,2,-5,0
892.243,5,1,-3,1
892.243,4,2,0,3
892.244,5,1,1,5
892.244,6,5,5,6
892.245,7,6,6,5
892.246,7,7,6,4
892.246,6,7,7,4
892.247,3,5,5,1
892.247,0,2,3,1
892.248,-1,0,2,0
892.248,-2,0,3,2
892.249,0,1,3,3
892.25,2,2,4,4
892.25,2,3,3,2
892.251,1,1,2,1
892.251,0,0,1,1
892.252,1,1,2,3
892.252,4,3,3,4
892.253,4,3,2,2
892.254,3,4,4,2
892.254,4,7,6,2
892.255,2,6,5,1
892.255,1,4,4,0
892.256,0,4,3,0
892.256,0,2,1,-2
892.257,-2,0,0,0
892.258,0,0,1,0
892.258,1,1,1,1
892.259,2,1,1,2
892.259,3,1,1,2
892.26,1,0,-1,1
892.26,2,-1,-2,3
892.261,3,-2,-2,5
892.262,7,1,0,6
892.262,6,1,1,7
892.263,7,2,3,8
892.263,9,3,4,9
892.264,11,6,5,8
892.264,10,7,6,6
892.265,7,6,4,3
892.266,6,7,4,3
892.266,7,9,3,1
892.267,7,9,3,-1
892.267,2,6,0,-4
892.268,-2,1,0,-5
892.268,-3,1,0,-4
892.269,-3,1,0,-3
892.27,-3,0,1,0
892.27,-1,-2,0,1
892.271,0,-2,-1,2
892.271,4,1,2,5
892.272,6,4,3,5
892.273,3,-1,0,5
892.273,5,-1,0,8
892.274,11,9,8,10
892.274,11,13,10,5
892.275,5,9,7,2
892.275,2,7,6,1
892.276,0,5,3,-2
892.277,-3,0,0,-5
892.277,-5,-3,-3,-5
892.278,-5,-3,-1,-1
892.278,-1,0,0,1
892.279,2,3,3,4
892.279,4,2,2,3
892.28,2,0,0,2
892.281,4,0,0,4
892.281,6,3,1,7
892.282,9,3,1,7
892.282,9,2,0,4
892.283,7,2,0,5
892.284,7,3,0,5
892.284,8,4,2,6
892.285,8,7,5,6
892.285,6,6,5,3
892.286,4,6,5,1
892.286,2,5,4,1
892.287,2,5,3,0
892.288,2,4,2,0
892.288,2,4,1,0
892.289,1,2,1,-1
892.289,0,1,0,-1
892.29,0,-2,-1,0
892.29,0,-2,-1,2
892.291,4,1,1,4
892.292,6,5,3,4
892.292,5,5,4,4
892.293,5,5,3,3
892.293,4,4,5,3
892.294,3,6,7,3
892.294,3,6,7,3
892.295,1,4,5,1
892.295,0,3,3,-1
892.296,0,4,3,-2
892.297,-1,2,0,-4
892.297,-2,1,0,-4
892.298,-4,-1,0,-1
892.298,-1,0,0,2
892.299,1,-3,-2,2
892.299,1,-7,-5,5
892.3,8,0,0,8
892.301,12,6,3,8
892.301,10,5,2,8
892.302,9,2,0,6
892.302,8,1,0,7
892.303,9,3,2,7
892.304,9,6,2,6
892.304,8,6,3,4
892.305,5,5,5,3
892.305,0,2,5,2
892.306,0,3,5,2
892.306,-1,2,5,2
892.307,0,3,5,2
892.308,1,4,6,4
892.308,4,6,4,3
892.309,6,7,3,3
892.309,11,10,0,-1
892.31,7,5,-4,-7
892.31,-1,0,-4,-4
892.311,-2,-2,-3,-1
892.312,-1,-3,-4,0
892.312,0,-5,-4,0
892.313,2,0,1,5
892.313,7,6,7,10
892.314,15,16,12,9
892.314,13,15,9,3
892.315,2,5,3,-2
892.316,-2,3,3,-1
892.316,-2,2,2,-2
892.317,-2,2,2,-2
892.317,-2,1,0,0
892.318,1,1,-1,-1
892.318,1,0,-1,-1
892.319,0,1,1,1
892.32,1,0,1,1
892.32,0,-1,0,3
892.321,3,1,2,5
892.321,3,0,0,6
892.322,4,-2,-2,6
892.322,6,-1,0,8
892.323,7,0,2,10
892.324,10,4,5,11
892.324,12,7,7,11
892.325,10,8,7,8
892.325,8,7,7,6
892.326,5,7,5,2
892.326,2,4,3,0
892.327,1,4,2,0
892.328,4,7,2,0
892.328,3,6,0,-3
892.329,0,1,-1,-4
892.329,-4,-1,-2,-4
892.33,-4,-1,0,-1
892.331,-1,0,1,1
892.331,-1,0,3,2
892.332,1,0,3,5
892.332,4,2,3,5
892.333,7,5,4,7
892.333,11,9,4,6
892.334,11,12,6,3
892.335,8,10,4,0
892.335,2,6,1,-4
892.336,0,5,2,-5
892.336,-4,1,0,-5
892.337,-5,0,0,-4
892.337,-4,0,1,-1
892.338,-2,0,1,0
892.339,0,0,0,1
892.339,0,-2,-1,2
892.34,0,-7,-5,4
892.34,7,1,3,8
892.341,10,8,8,9
892.342,8,5,6,9
892.342,7,1,1,7
892.343,8,1,0,7
892.343,10,3,0,5
892.344,8,1,0,4
892.344,6,1,0,4
892.345,6,3,3,5
892.345,7,6,4,4
892.346,4,6,5,2
892.347,2,4,4,2
892.347,0,3,3,1
892.348,0,3,4,1
892.348,1,3,4,0
892.349,1,3,2,0
892.349,1,4,2,0
892.35,0,2,2,1
892.351,1,1,0,0
892.351,0,-2,-3,0
892.352,1,-1,-1,2
892.352,4,1,0,3
892.353,6,3,2,4
892.353,7,6,4,4
892.354,7,10,7,3
892.355,5,9,7,2
892.355,3,7,5,0
892.356,0,6,4,-2
892.356,-2,1,0,-3
892.357,-3,0,0,-3
892.358,-3,0,1,0
892.358,-2,0,1,2
892.359,0,0,1,2
892.359,2,1,2,3
892.36,2,0,0,4
892.36,3,-1,-1,5
892.361,4,-2,-1,6
892.362,7,0,0,8
892.362,8,0,0,8
892.363,11,3,0,8
892.363,11,6,3,7
892.364,11,7,4,7
892.364,12,11,6,5
892.365,10,12,7,1
892.366,4,10,6,0
892.366,0,5,3,-2
892.367,-2,1,0,-3
892.367,-3,-2,-2,-5
892.368,-4,-2,-1,-2
892.368,-3,0,3,2
892.369,0,1,5,4
892.37,2,3,4,5
892.37,4,3,3,4
892.371,2,0,1,3
892.371,2,-1,0,2
892.372,4,3,2,4
892.372,7,6,5,5
892.373,6,5,4,3
892.374,4,5,3,2
892.374,2,4,4,1
892.375,1,4,3,0
892.375,1,3,2,0
892.376,3,6,3,0
892.376,1,7,4,0
892.377,1,5,2,0
892.378,2,4,0,-2
892.378,0,-1,-3,-3
892.379,-1,-1,-2,-1
892.379,0,-1,0,2
892.38,1,-2,-2,3
892.38,4,-1,-2,4
892.381,5,0,0,6
892.382,8,3,2,9
892.382,10,4,2,8
892.383,11,6,4,7
892.383,10,6,3,5
892.384,9,7,3,4
892.385,6,6,4,3
892.385,4,5,3,2
892.386,1,3,2,0
892.386,0,0,0,0
892.387,0,0,1,0
892.387,1,3,4,1
892.388,1,3,4,2
892.388,3,5,4,3
892.389,6,7,3,1
892.39,4,6,2,0
892.39,0,0,0,0
892.391,-2,-2,-1,0
892.391,0,-1,0,1
892.392,1,0,1,3
892.393,1,1,3,4
892.393,3,3,5,6
892.394,5,5,8,7
892.394,6,5,6,4
892.395,4,5,5,4
892.395,4,7,6,3
892.396,5,8,4,1
892.397,4,6,0,-2
892.397,3,4,-2,-4
892.398,-1,0,-2,-4
892.398,-2,-1,-3,-4
892.399,-2,-1,-2,-1
892.399,-1,-1,0,0
892.4,1,-1,-1,2
892.401,2,-2,-2,4
892.401,4,0,0,7
892.402,9,1,1,9
892.402,11,3,2,10
892.403,11,6,5,10
892.403,12,7,5,8
892.404,10,7,6,7
892.405,9,10,8,5
892.405,5,7,6,1
892.406,0,3,4,-1
892.406,-4,0,3,0
892.407,-6,-3,1,0
892.408,-6,-5,1,0
892.408,-4,-2,2,4
892.409,1,1,5,7
892.409,7,7,7,8
892.41,10,8,4,9
892.41,16,11,0,6
892.411,19,14,-3,-1
892.411,11,8,-6,-7
892.412,0,0,-6,-8
892.413,-2,0,-4,-7
892.413,-4,-1,-2,-5
892.414,-3,2,2,-1
892.414,-1,5,7,1
892.415,0,5,8,2
892.416,1,6,8,3
892.416,0,4,6,1
892.417,-2,0,2,0
892.417,-2,0,2,3
892.418,0,0,2,3
892.418,2,1,2,4
892.419,3,1,1,4
892.42,4,1,1,4
892.42,6,1,1,5
892.421,6,0,0,6
892.421,6,1,0,5
892.422,6,0,-1,4
892.422,6,0,0,5
892.423,6,1,0,6
892.424,7,2,1,7
892.424,8,5,4,8
892.425,9,7,6,7
892.425,7,6,5,4
892.426,5,8,6,3
892.426,4,7,4,1
892.427,3,4,1,0
892.428,0,0,-2,-3
892.428,-2,0,-1,-1
892.429,0,1,0,0
892.429,2,3,2,0
892.43,1,2,1,0
892.43,2,3,1,0
892.431,1,2,2,1
892.432,2,1,1,1
892.432,1,0,0,3
892.433,3,0,0,4
892.433,6,4,3,4
892.434,7,9,8,5
892.434,5,8,7,2
892.435,1,5,6,1
892.436,0,5,6,0
892.436,-3,1,2,-1
892.437,-2,0,0,-1
892.437,0,0,0,1
892.438,1,-1,-2,0
892.438,4,2,0,2
892.439,6,4,2,1
892.44,3,1,0,2
892.44,2,-1,-1,2
892.441,3,0,-1,5
892.441,6,1,0,6
892.442,9,3,0,5
892.443,9,4,2,6
892.443,7,5,4,8
892.444,7,1,0,5
892.444,9,7,5,4
892.445,7,9,9,4
892.445,1,4,6,2
892.446,-1,1,4,2
892.447,1,2,3,2
892.447,0,1,1,0
892.448,0,0,0,1
892.448,1,2,1,1
892.449,4,5,4,2
892.449,5,6,3,1
892.45,3,4,2,0
892.451,1,2,0,-2
892.451,0,1,0,0
892.452,1,2,0,1
892.452,2,0,0,2
892.453,2,0,0,3
892.453,6,5,4,4
892.454,8,12,9,5
892.455,7,12,9,4
892.455,4,8,5,0
892.456,0,4,2,-3
892.456,-3,-1,-1,-4
892.457,-4,-4,-4,-4
892.458,-2,-3,-3,-1
892.458,0,0,0,0
892.459,0,-1,0,3
892.459,1,0,2,5
892.46,2,0,4,6
892.46,4,4,6,7
892.461,4,3,5,9
892.462,6,1,2,9
892.462,9,2,0,8
892.463,14,7,0,7
892.463,14,8,-1,2
892.464,10,5,-1,2
892.464,9,4,-2,1
892.465,8,4,-1,1
892.466,8,5,-1,-2
892.466,1,3,2,-1
892.467,-2,3,5,0
892.467,-1,4,8,1
892.468,-2,2,6,2
892.468,-2,0,1,0
892.469,0,0,0,2
892.47,2,3,2,2
892.47,2,3,3,3
892.471,3,3,3,3
892.471,3,3,2,2
892.472,3,3,2,3
892.472,5,4,3,4
892.473,5,4,2,2
892.474,5,6,4,2
892.474,4,5,4,1
892.475,1,2,1,0
892.475,2,5,3,1
892.476,4,9,6,0
892.476,1,6,4,-3
892.477,-2,3,3,-3
892.478,-5,-1,0,-3
892.478,-4,0,0,-1
892.479,-3,-3,-1,0
892.479,-2,-5,-2,3
892.48,0,-7,-3,6
892.48,4,-4,-1,10
892.481,12,1,1,11
892.482,13,5,4,12
892.482,13,5,4,10
892.483,10,3,3,9
892.483,8,4,4,8
892.484,7,5,5,7
892.484,7,7,5,5
892.485,7,6,4,7
892.486,14,14,5,3
892.486,14,14,2,-3
892.487,2,3,-4,-9
892.487,-5,-3,-7,-9
892.488,-4,0,-3,-5
892.488,-1,2,0,-2
892.489,0,3,2,-1
892.49,0,2,1,0
892.49,0,2,2,0
892.491,0,0,1,0
892.491,-1,0,3,5
892.492,2,2,3,5
892.492,4,2,3,6
892.493,4,4,5,6
892.494,6,7,8,6
892.494,5,6,7,6
892.495,4,5,5,3
892.495,4,7,7,3
892.496,3,8,7,1
892.497,0,5,3,-1
892.497,-2,1,1,-2
892.498,-3,-2,-3,-4
892.498,-2,-1,-1,0
892.499,1,0,0,0
892.499,0,-1,-3,0
892.5,2,-1,-2,2
892.501,3,-1,-1,3
892.501,4,0,0,6
892.502,7,2,1,7
892.502,8,3,3,9
892.503,10,6,5,8
892.504,11,8,6,8
892.504,10,8,5,6
892.505,8,6,4,3
892.505,5,4,2,1
892.506,4,6,5,2
892.506,3,6,5,1
892.507,1,3,3,0
892.508,-1,2,3,0
892.508,-1,1,3,0
892.509,0,0,1,0
892.509,0,0,0,0
892.51,0,0,0,2
892.51,2,1,0,2
892.511,4,3,1,3
892.511,4,3,2,2
892.512,2,1,1,3
892.513,2,1,1,3
892.513,4,3,3,5
892.514,6,8,9,7
892.514,5,6,6,4
892.515,4,4,2,2
892.515,4,6,3,1
892.516,4,6,1,-2
892.517,3,5,0,-5
892.517,-2,0,-3,-5
892.518,-4,-4,-5,-3
892.518,-1,-3,-3,0
892.519,3,4,2,2
892.52,3,4,4,1
892.52,0,0,2,4
892.521,2,0,0,5
892.521,4,0,0,7
892.522,7,0,0,5
892.522,6,1,1,7
892.523,8,4,4,10
892.524,12,7,5,8
892.524,11,9,6,8
892.525,9,8,3,2
892.525,4,4,2,0
892.526,3,5,3,2
892.526,6,7,3,2
892.527,7,6,0,-2
892.528,0,0,-1,-4
892.528,-3,0,0,-2
892.529,-1,3,4,0
892.529,0,3,5,2
892.53,0,0,1,1
892.53,0,-2,0,1
892.531,0,0,0,3
892.532,4,3,3,4
892.532,4,4,5,6
892.533,5,5,4,4
892.533,4,4,4,4
892.534,6,9,7,3
892.534,5,8,7,1
892.535,2,4,2,0
892.536,0,3,1,0
892.536,0,2,0,-2
892.537,0,0,-3,-3
892.537,-3,-5,-4,-1
892.538,0,0,0,2
892.538,5,5,4,4
892.539,5,6,5,3
892.54,1,0,0,2
892.54,0,-2,0,3
892.541,3,-1,-1,4
892.541,5,0,0,5
892.542,7,1,0,7
892.542,9,4,2,7
892.543,10,4,3,8
892.544,9,3,2,6
892.544,8,6,4,5
892.545,5,5,4,4
892.545,3,3,3,4
892.546,3,3,4,3
892.546,3,3,2,2
892.547,2,3,2,0
892.548,1,2,2,0
892.548,2,3,2,1
892.549,4,7,3,1
892.549,3,5,2,0
892.55,0,1,-1,-2
892.55,0,-1,-1,-1
892.551,0,-2,-2,1
892.552,1,0,0,1
892.552,2,1,2,2
892.553,3,3,3,4
892.553,5,8,8,7
892.554,9,12,11,7
892.554,7,12,9,2
892.555,4,7,4,-1
892.556,0,5,1,-3
892.556,0,2,0,-4
892.557,0,2,-1,-5
892.557,-4,-1,-2,-5
892.558,-4,-3,-2,-2
892.559,-2,-1,0,0
892.559,0,0,2,4
892.56,3,1,2,5
892.56,4,1,1,6
892.561,4,0,1,5
892.561,4,0,0,7
892.562,6,0,2,9
892.563,11,4,3,10
892.563,13,7,4,10
892.564,12,5,2,7
892.564,10,7,5,6
892.565,8,9,6,4
892.565,5,6,5,1
892.566,0,3,2,0
892.567,0,0,0,-1
892.567,0,0,-1,-1
892.568,0,0,0,0
892.568,0,0,0,0
892.569,1,0,0,0
892.57,2,4,3,2
892.57,3,5,4,2
892.571,2,2,2,1
892.571,1,1,1,2
892.572,4,5,3,4
892.572,4,3,2,4
892.573,4,0,0,3
892.573,6,3,2,3
892.574,6,7,5,3
892.575,6,8,6,1
892.575,2,8,7,0
892.576,0,6,5,-1
892.576,-1,2,2,-3
892.577,-3,0,0,-3
892.577,-2,0,-1,-2
892.578,-1,0,-1,-1
892.579,0,1,1,1
892.579,2,2,1,1
892.58,0,0,0,2
892.58,1,-1,0,4
892.581,4,0,0,6
892.582,6,2,4,9
892.582,7,1,2,9
892.583,7,0,0,9
892.583,11,3,1,11
892.584,16,9,5,10
892.584,17,14,6,5
892.585,9,8,2,1
892.586,4,6,1,0
892.586,4,5,0,-2
892.587,0,2,0,-5
892.587,-3,0,0,-4
892.588,-2,0,1,-2
892.588,-2,0,1,-1
892.589,-2,0,3,1
892.59,0,1,4,2
892.59,0,3,6,5
892.591,3,4,6,7
892.591,5,5,5,6
892.592,4,3,3,3
892.592,3,0,-1,2
892.593,3,-2,-4,2
892.594,8,7,3,3
892.594,6,9,7,3
892.595,4,7,6,1
892.595,0,4,4,1
892.596,1,2,0,0
892.596,1,3,1,-1
892.597,1,4,2,-1
892.598,0,0,0,-2
892.598,0,1,0,0
892.599,1,5,5,2
892.599,4,5,3,1
892.6,3,0,-3,0
892.6,3,-2,-5,1
892.601,3,-3,-4,3
892.602,6,0,-1,6
892.602,7,-1,-2,6
892.603,9,0,0,9
892.603,12,6,4,9
892.604,12,8,6,9
892.604,11,10,7,7
892.605,9,9,5,3
892.606,4,6,5,2
892.606,1,4,5,1
892.607,-1,0,2,0
892.607,-4,-1,0,-2
892.608,-4,0,2,0
892.609,-2,0,3,1
892.609,0,1,4,3
892.61,0,2,5,3
892.61,1,1,2,3
892.611,3,2,1,4
892.611,7,4,2,4
892.612,5,4,2,2
892.612,4,3,3,2
892.613,1,3,4,1
892.614,1,5,6,3
892.614,3,7,6,2
892.615,3,6,5,2
892.615,3,7,5,0
892.616,3,5,1,-1
892.617,2,5,0,-3
892.617,2,4,-3,-5
892.618,-1,0,-5,-5
892.618,0,0,-2,-1
892.619,2,0,-1,0
892.619,0,-3,-3,1
892.62,1,-3,-2,3
892.62,4,-1,0,7
892.621,6,-1,0,9
892.622,8,-2,-2,8
892.622,11,3,2,10
892.623,12,7,6,11
892.623,12,8,6,9
892.624,11,8,7,8
892.625,8,8,5,4
892.625,4,4,2,1
892.626,1,2,2,0
892.626,1,3,3,1
892.627,1,4,3,0
892.628,0,3,2,0
892.628,0,2,1,-1
892.629,-1,1,0,-2
892.629,-1,0,1,1
892.63,0,1,1,2
892.63,1,0,1,2
892.631,1,0,0,2
892.632,2,0,0,3
892.632,2,0,0,4
892.633,6,6,6,6
892.633,8,10,9,6
892.634,7,10,9,4
892.634,4,9,7,1
892.635,1,6,4,-1
892.636,0,6,4,-1
892.636,-3,0,0,-3
892.637,-3,-2,-2,-3
892.637,-2,-3,-4,-2
892.638,-1,-3,-2,0
892.638,1,0,0,2
892.639,4,3,2,4
892.64,4,2,1,4
892.64,4,1,0,3
892.641,3,0,0,5
892.641,5,0,0,5
892.642,5,0,0,6
892.642,7,2,2,9
892.643,11,5,5,10
892.644,11,6,6,11
892.644,13,10,6,8
892.645,10,8,4,5
892.645,8,7,2,2
892.646,7,7,0,0
892.646,3,4,0,-3
892.647,0,2,-1,-5
892.648,-2,0,-1,-3
892.648,0,1,0,-1
892.649,0,3,1,-1
892.649,0,3,2,0
892.65,-1,0,0,0
892.65,-1,-3,-1,2
892.651,2,0,1,5
892.652,5,3,4,7
892.652,7,5,5,6
892.653,7,5,4,5
892.653,5,6,6,3
892.654,4,7,7,3
892.654,3,7,7,1
892.655,1,4,3,0
892.656,0,3,3,-1
892.656,-2,0,0,-2
892.657,-2,1,1,0
892.657,-2,0,1,1
892.658,0,1,1,1
892.659,2,2,2,2
892.659,2,0,0,3
892.66,2,0,0,4
892.66,4,0,-1,4
892.661,5,0,-1,5
892.661,7,0,-1,6
892.662,9,2,0,7
892.662,11,5,1,5
892.663,8,4,2,5
892.664,7,4,4,5
892.664,7,9,9,6
892.665,7,9,9,4
892.665,4,7,5,1
892.666,1,3,2,0
892.667,-1,0,0,-1
892.667,-1,0,0,-1
892.668,-1,1,0,-1
892.668,0,1,1,1
892.669,2,4,2,1
892.669,3,3,2,1
892.67,0,-2,-2,2
892.671,1,-5,-4,3
892.671,5,0,-1,7
892.672,10,5,2,8
892.672,10,5,3,7
892.673,8,5,4,5
892.673,8,11,9,6
892.674,6,10,9,2
892.675,3,8,6,-1
892.675,-1,7,8,-2
892.676,-5,2,4,-4
892.676,-9,-3,0,-6
892.677,-8,-4,-1,-4
892.677,-6,-3,-1,-1
892.678,-2,0,2,2
892.679,1,2,4,4
892.679,3,3,3,5
892.68,4,2,2,6
892.68,8,2,0,8
892.681,17,9,-1,6
892.681,17,7,-3,1
892.682,8,0,-5,1
892.683,5,0,-2,2
892.683,4,-1,-2,3
892.684,5,2,2,5
892.684,8,8,7,7
892.685,8,9,8,6
892.685,6,8,6,2
892.686,1,3,3,0
892.687,-1,0,0,0
892.687,0,2,2,2
892.688,2,4,3,3
892.688,4,5,2,1
892.689,2,2,0,0
892.69,0,1,0,-1
892.69,1,5,4,0
892.691,0,4,5,2
892.691,1,2,3,2
892.692,3,3,2,1
892.692,0,0,0,0
892.693,0,-1,0,1
892.693,2,0,2,5
892.694,6,6,5,7
892.695,7,8,7,4
892.695,7,10,7,1
892.696,2,6,4,0
892.696,0,2,2,-1
892.697,-2,0,0,-1
892.698,-1,0,0,-1
892.698,-1,-1,-1,0
892.699,0,1,1,2
892.699,2,1,0,3
892.7,4,0,0,4
892.7,5,0,0,5
892.701,7,2,0,4
892.701,5,0,0,6
892.702,6,0,0,8
892.703,8,1,1,8
892.703,9,3,2,6
892.704,8,4,3,6
892.704,9,9,7,6
892.705,8,9,8,4
892.706,3,6,6,1
892.706,1,5,4,1
892.707,2,4,2,0
892.707,1,3,0,-1
892.708,0,2,0,-1
892.708,0,1,0,0
892.709,1,0,-2,0
892.71,1,-2,-4,0
892.71,5,4,0,1
892.711,4,5,4,2
892.711,1,2,2,1
892.712,0,0,1,1
892.712,0,0,1,3
892.713,2,3,4,4
892.714,6,10,10,6
892.714,6,12,11,6
892.715,6,10,7,1
892.715,2,6,5,0
892.716,0,2,0,-3
892.716,-2,0,-2,-4
892.717,-2,-1,-3,-3
892.718,0,0,-2,0
892.718,1,0,0,1
892.719,3,1,1,3
892.719,2,0,0,3
892.72,2,-2,-2,2
892.72,2,-1,0,5
892.721,6,0,0,8
892.722,7,0,1,8
892.722,8,1,2,7
892.723,8,4,5,10
892.723,10,6,6,11
892.724,12,9,7,8
892.724,10,8,5,4
892.725,5,4,2,1
892.726,2,4,2,0
892.726,0,2,2,1
892.727,3,5,2,2
892.727,6,8,3,-2
892.728,0,4,1,-4
892.728,-4,0,0,-4
892.729,-5,0,1,0
892.73,-1,3,4,1
892.73,-1,-1,0,0
892.731,-3,-7,-5,2
892.731,3,-1,0,6
892.732,9,6,5,7
892.732,9,5,4,6
892.733,7,7,5,5
892.734,8,9,8,5
892.734,7,8,6,2
892.735,2,3,2,0
892.735,0,2,2,-1
892.736,-3,0,1,-1
892.737,0,1,2,1
892.737,4,5,1,0
892.738,2,2,0,-1
892.738,0,0,-1,0
892.739,0,0,0,1
892.739,4,3,0,1
892.74,5,2,0,1
892.741,2,0,0,2
892.741,3,0,0,4
892.742,4,-1,-1,6
892.742,9,2,0,7
892.743,12,7,3,7
892.743,9,4,0,6
892.744,12,8,3,6
892.745,13,11,5,3
892.745,8,9,5,1
892.746,3,7,4,0
892.746,1,4,2,-1
892.747,0,2,0,-4
892.747,-4,0,0,-3
892.748,-3,0,0,0
892.749,0,2,3,1
892.749,0,2,4,3
892.75,1,2,3,3
892.75,2,2,2,3
892.751,2,1,2,2
892.751,3,2,2,4
892.752,4,3,3,5
892.753,5,3,3,5
892.753,6,5,5,3
892.754,5,7,6,2
892.754,3,7,6,0
892.755,0,3,4,0
892.755,-2,3,5,0
892.756,-2,0,2,-1
892.757,-1,1,0,-1
892.757,-2,0,0,0
892.758,1,1,1,1
892.758,2,1,1,2
892.759,2,1,1,2
892.759,2,0,0,2
892.76,2,0,0,4
892.761,2,-1,0,6
892.761,7,0,0,7
892.762,8,0,0,6
892.762,8,1,0,7
892.763,10,4,3,8
892.764,10,5,5,9
892.764,9,5,2,6
892.765,8,5,2,5
892.765,7,7,5,3
892.766,5,7,4,1
892.766,3,5,3,0
892.767,1,3,1,0
892.768,1,3,2,-1
892.768,0,2,0,-2
892.769,-1,0,0,-1
892.769,0,2,2,0
892.77,1,1,1,0
892.77,0,1,1,1
892.771,0,0,1,2
892.772,2,1,2,4
892.772,4,1,1,4
892.773,5,4,3,5
892.773,7,7,6,4
892.774,6,9,6,4
892.774,5,8,6,1
892.775,4,8,3,0
892.776,1,5,2,-1
892.776,0,2,0,-3
892.777,-1,0,0,-3
892.777,-1,0,-1,-2
892.778,-1,0,0,0
892.778,0,0,0,1
892.779,1,0,1,4
892.78,2,0,0,3
892.78,2,-1,0,5
892.781,3,-1,0,6
892.781,6,0,1,7
892.782,8,2,2,9
892.783,12,7,4,10
892.783,13,9,4,7
892.784,12,7,2,4
892.784,8,6,2,2
892.785,4,4,2,1
892.785,2,3,2,0
892.786,0,2,2,0
892.787,0,3,2,1
892.787,1,2,2,0
892.788,1,2,1,1
892.788,2,2,0,1
892.789,3,2,0,0
892.789,3,3,0,1
892.79,3,3,2,3
892.791,4,3,2,2
892.791,4,4,1,1
892.792,2,2,0,0
892.792,1,1,1,1
892.793,3,3,3,3
892.793,5,7,6,3
892.794,3,7,6,1
892.794,1,4,5,1
892.795,1,6,5,1
892.796,1,5,4,0
892.796,0,3,2,-1
892.797,-1,1,1,-1
892.797,-2,0,0,-1
892.798,-2,-1,0,0
892.799,0,0,0,2
892.799,2,0,0,4
892.8,3,-1,-1,5
892.8,5,0,1,6
892.801,6,0,0,7
892.801,8,1,0,9
892.802,10,3,1,8
892.803,11,6,3,9
892.803,12,7,4,7
892.804,11,9,6,5
892.804,6,7,5,3
892.805,3,3,1,0
892.805,2,2,0,0
892.806,2,3,2,0
892.807,1,4,1,0
892.807,1,3,1,0
892.808,0,2,1,0
892.808,1,5,2,0
892.809,2,5,2,0
892.809,2,4,1,0
892.81,0,2,0,-1
892.811,-1,0,0,0
892.811,-1,-2,-1,1
892.812,1,-1,0,3
892.812,2,0,2,5
892.813,3,2,4,6
892.813,4,5,7,7
892.814,7,9,11,7
892.815,7,10,9,6
892.815,7,9,6,2
892.816,3,4,1,0
892.816,5,7,1,-1
892.817,4,9,0,-6
892.818,-4,0,-3,-7
892.818,-6,-5,-5,-5
892.819,-3,-2,-2,-2
892.819,-1,-2,-1,0
892.82,-1,-4,-2,2
892.82,1,-4,-1,7
892.821,6,-3,-2,9
892.822,7,-3,-2,10
892.822,12,0,0,12
892.823,17,10,9,14
892.823,17,15,12,12
892.824,13,12,9,9
892.824,9,7,4,3
892.825,4,3,1,0
892.826,0,2,0,-2
892.826,0,1,0,-2
892.827,-1,0,0,0
892.827,0,0,1,0
892.828,-2,-4,-1,1
892.828,0,-2,-1,2
892.829,4,5,4,3
892.83,5,9,7,2
892.83,4,8,7,2
892.831,1,3,3,1
892.831,0,0,0,1
892.832,3,2,0,2
892.832,5,4,1,2
892.833,5,6,3,2
892.834,5,9,8,3
892.834,3,8,7,0
892.835,-1,4,3,-2
892.835,-2,2,3,-2
892.836,-2,1,3,0
892.836,-1,1,2,0
892.837,0,0,0,0
892.838,0,0,0,0
892.838,0,0,0,2
892.839,3,1,1,4
892.839,4,1,0,4
892.84,6,0,-1,4
892.841,6,1,-1,4
892.841,6,0,0,6
892.842,8,0,0,6
892.842,8,2,0,7
892.843,8,3,2,7
892.843,8,4,4,7
892.844,8,6,6,6
892.844,6,8,8,6
892.845,6,9,7,3
892.846,3,5,3,0
892.846,-1,0,0,-1
892.847,-1,0,0,0
892.847,0,1,1,0
892.848,1,1,1,0
892.849,0,0,0,0
892.849,1,0,1,2
892.85,2,3,3,3
892.85,3,3,3,3
892.851,1,0,2,5
892.851,5,2,2,5
892.852,7,5,2,4
892.853,7,4,0,1
892.853,5,6,2,1
892.854,6,9,6,1
892.854,3,9,5,0
892.855,0,5,3,-3
892.855,-3,2,2,-3
892.856,-3,0,0,-3
892.857,-4,-2,-1,-1
892.857,-1,0,0,1
892.858,1,1,1,3
892.858,5,3,3,4
892.859,4,3,1,4
892.859,4,0,0,4
892.86,6,2,0,5
892.861,7,1,0,4
892.861,7,1,0,4
892.862,6,1,0,4
892.862,8,4,1,5
892.863,8,6,4,6
892.863,8,7,4,5
892.864,8,9,5,3
892.865,5,7,5,1
892.865,0,2,1,0
892.866,0,-1,0,0
892.866,0,-1,0,2
892.867,3,2,3,4
892.867,5,7,5,3
892.868,4,5,3,2
892.869,2,4,4,2
892.869,1,3,2,0
892.87,0,0,0,0
892.87,0,0,0,1
892.871,1,0,1,3
892.871,3,3,2,4
892.872,4,4,3,4
892.873,4,3,1,2
892.873,5,6,3,2
892.874,5,7,5,2
892.874,3,7,5,1
892.875,1,4,3,-1
892.875,-1,0,0,-2
892.876,-2,0,0,-1
892.877,0,1,1,0
892.877,0,2,1,0
892.878,1,2,2,1
892.878,2,3,3,2
892.879,3,5,4,2
892.88,2,2,2,1
892.88,1,-1,-2,2
892.881,2,-4,-3,4
892.881,6,-1,-3,6
892.882,7,-1,-1,8
892.882,10,3,3,10
892.883,12,4,2,8
892.884,9,3,2,9
892.884,12,10,7,8
892.885,11,12,9,4
892.885,5,10,9,1
892.886,0,6,6,0
892.886,-3,0,0,-2
892.887,-4,-2,-1,-3
892.888,-5,-3,-2,-1
892.888,0,0,1,1
892.889,3,5,4,4
892.889,7,6,3,5
892.89,8,6,0,1
892.89,4,2,-1,-2
892.891,-1,-1,-1,-1
892.892,-1,-2,0,1
892.892,1,0,2,4
892.893,3,3,4,6
892.893,7,9,7,5
892.894,6,12,10,4
892.894,5,11,8,2
892.895,3,8,5,0
892.896,0,3,0,-3
892.896,-2,0,-2,-5
892.897,-3,0,-2,-3
892.897,0,2,0,1
892.898,6,7,1,0
892.899,4,4,-1,-2
892.899,-2,-2,-3,-2
892.9,-2,-4,-2,1
892.9,-1,-7,-2,5
892.901,1,-8,-3,9
892.901,10,1,3,12
892.902,12,6,7,13
892.903,13,9,9,13
892.903,12,8,8,10
892.904,8,4,3,6
892.904,6,3,2,5
892.905,6,7,6,3
892.905,4,7,5,1
892.906,2,5,3,-2
892.907,-1,3,1,-1
892.907,-1,1,0,-1
892.908,0,1,0,-1
892.908,1,1,0,0
892.909,5,5,1,0
892.909,1,4,3,0
892.91,0,0,2,1
892.911,0,0,0,1
892.911,1,0,0,0
892.912,0,1,2,2
892.912,3,3,4,6
892.913,7,8,7,6
892.913,8,11,7,3
892.914,6,9,5,0
892.915,4,6,2,-2
892.915,0,4,0,-3
892.916,-1,1,0,-4
892.916,-2,2,0,-2
892.917,0,0,-1,-3
892.917,0,0,-1,-1
892.918,0,0,0,1
892.919,1,-1,1,5
892.919,5,1,2,5
892.92,3,0,1,5
892.92,3,-1,0,7
892.921,6,1,3,10
892.921,8,2,3,9
892.922,8,1,1,8
892.923,8,2,0,8
892.923,13,7,3,6
892.924,12,10,5,4
892.924,9,10,5,2
892.925,3,6,3,0
892.926,1,3,1,-1
892.926,0,3,2,-1
892.927,0,4,2,-1
892.927,0,2,1,-1
892.928,0,1,0,0
892.928,0,2,2,0
892.929,0,1,1,0
892.93,0,-1,0,1
892.93,0,0,1,3
892.931,1,0,3,5
892.931,3,1,3,6
892.932,5,2,3,5
892.932,4,1,2,5
892.933,6,3,2,5
892.934,8,10,8,5
892.934,8,11,8,2
892.935,3,7,4,-1
892.935,0,3,2,-1
892.936,0,2,1,-1
892.936,0,4,1,-2
892.937,0,4,1,-2
892.938,-3,-1,-2,-2
892.938,0,0,0,1
892.939,3,3,1,2
892.939,3,1,0,2
892.94,2,-1,-3,3
892.94,3,-4,-4,4
892.941,6,-2,-2,6
892.942,8,0,0,8
892.942,10,3,2,9
892.943,12,7,4,8
892.943,11,8,6,7
892.944,8,7,7,7
892.944,6,4,2,4
892.945,6,5,3,2
892.946,4,4,2,1
892.946,4,6,4,1
892.947,3,5,3,0
892.947,0,0,0,-2
892.948,-1,0,-1,-1
892.948,1,4,1,-3
892.949,-1,2,1,-2
892.95,-2,0,0,-1
892.95,-2,-1,0,-1
892.951,-1,1,3,3
892.951,1,5,8,6
892.952,4,9,12,10
892.952,8,9,10,8
892.953,6,6,6,3
892.954,2,4,4,0
892.954,0,4,3,-1
892.955,-2,1,3,0
892.955,0,3,3,0
892.956,2,3,1,1
892.956,5,4,-1,-1
892.957,1,0,-3,-3
892.958,0,0,-2,0
892.958,3,2,1,2
892.959,5,4,2,2
892.959,1,-1,-2,0
892.96,0,-5,-4,1
892.961,1,-8,-6,5
892.961,4,-5,-4,8
892.962,11,3,2,11
892.962,15,9,7,12
892.963,16,10,7,11
892.963,13,9,4,6
892.964,10,8,4,2
892.965,4,6,3,0
892.965,0,3,2,-2
892.966,-1,4,4,0
892.966,5,10,6,1
892.967,5,12,5,-2
892.967,-1,2,0,-6
892.968,-7,-4,-3,-4
892.969,-8,-8,-4,-1
892.969,0,3,5,5
892.97,5,7,7,6
892.97,2,2,2,5
892.971,3,1,2,7
892.971,8,6,4,7
892.972,9,6,1,1
892.973,6,2,-4,-5
892.973,0,3,1,-3
892.974,0,5,6,1
892.974,0,3,5,0
892.975,-1,3,5,0
892.975,-1,3,5,1
892.976,1,6,8,4
892.977,3,7,8,5
892.977,3,4,3,0
892.978,0,-1,-3,-1
892.978,1,-2,-2,1
892.979,3,-1,-3,4
892.979,5,-1,-1,6
892.98,7,-1,-2,6
892.981,7,-4,-8,4
892.981,9,-3,-8,4
892.982,10,0,-2,7
892.982,10,3,2,9
892.983,9,2,2,7
892.983,5,0,2,8
892.984,8,4,3,10
892.985,14,11,6,8
892.985,13,12,7,5
892.986,5,6,2,0
892.986,0,2,1,-3
892.987,-3,3,2,-4
892.988,-6,0,0,-4
892.988,-4,0,0,-3
892.989,-2,3,3,-3
892.989,-3,2,7,4
892.99,1,4,8,7
892.99,6,5,6,5
892.991,4,2,3,3
892.992,3,1,1,5
892.992,7,5,2,4
892.993,8,8,5,4
892.993,8,10,6,1
892.994,2,5,4,0
892.994,0,1,2,0
892.995,0,1,-1,-4
892.996,-3,0,0,-7
892.996,-9,-2,1,-4
892.997,-5,2,6,2
892.997,1,6,6,3
892.998,2,1,1,1
892.998,3,2,0,3
892.999,4,1,0,3
893,4,0,-1,4
893,7,1,0,6
893.001,9,4,1,4
893.001,5,1,0,2
893.002,0,-1,0,4
893.003,2,0,6,11
893.003,7,2,7,14
893.004,11,6,10,11
893.004,6,2,5,9
893.005,8,4,2,6
893.005,10,5,0,1
893.006,7,6,-1,0
893.007,11,11,-1,-5
893.007,6,11,0,-6
893.008,4,7,-3,-8
893.008,1,2,-7,-12
893.009,-7,-2,-7,-11
893.009,-9,-5,-4,-6
893.01,-3,0,1,0
893.011,0,4,6,6
893.011,3,5,9,9
893.012,5,4,7,9
893.012,5,1,4,10
893.013,10,5,3,6
893.013,12,13,8,7
893.014,14,15,8,7
893.015,13,13,6,2
893.015,8,14,8,-1
893.016,0,6,2,-6
893.016,-8,-6,-6,-6
893.017,-7,-10,-10,-4
893.017,-4,-6,-4,0
893.018,0,-3,0,2
893.018,0,0,3,2
893.019,0,2,5,5
893.02,1,-6,-5,1
893.02,3,-7,-10,0
893.021,6,-1,-3,4
893.021,10,5,3,9
893.022,12,9,6,6
893.023,8,7,6,7
893.023,8,5,6,8
893.024,7,5,6,7
893.024,6,5,5,4
893.025,4,7,7,4
893.025,4,9,9,4
893.026,2,7,7,1
893.027,0,1,2,-3
893.027,-7,-7,-4,-3
893.028,-6,-5,0,1
893.028,-6,-8,-1,7
893.029,5,0,2,10
893.029,16,14,10,11
893.03,14,14,8,4
893.031,8,10,6,6
893.031,12,10,3,5
893.032,9,3,-2,3
893.032,7,0,-3,0
893.033,2,0,-2,-3
893.034,-2,0,-2,-8
893.034,-6,3,5,-7
893.035,-9,5,9,-4
893.035,-9,6,10,-4
893.036,-9,2,6,-5
893.036,-9,0,4,-2
893.037,-8,-3,1,-3
893.037,-10,-9,-4,-3
893.038,-7,-5,0,3
893.039,3,5,7,12
893.039,14,13,10,12
893.04,16,14,8,7
893.04,8,4,0,3
893.041,3,-2,-2,9
893.042,7,-4,1,17
893.042,12,1,9,19
893.043,9,3,16,19
893.043,2,-4,11,13
893.044,-2,-3,9,10
893.044,1,2,3,0
893.045,1,4,-6,-15
893.046,-5,2,-7,-14
893.046,-6,0,-4,-5
893.047,0,-6,-13,-4
893.047,3,-5,-11,2
893.048,15,8,2,15
893.048,29,25,13,12
893.049,21,21,8,0
893.05,4,7,5,-2
893.05,-5,0,3,-3
893.051,-8,-4,-1,-5
893.051,-7,-5,-5,-5
893.052,-4,-8,-9,-1
893.052,5,-3,-8,0
893.053,13,13,6,4
893.054,17,24,14,2
893.054,9,19,10,-3
893.055,1,14,9,0
893.055,0,6,5,5
893.056,6,-4,-9,0
893.056,5,-2,-10,-4
893.057,1,-1,-4,-1
893.058,2,4,3,3
893.058,6,9,7,5
893.059,6,3,-2,-2
893.059,-2,-10,-13,-3
893.06,0,-9,-3,13
893.06,14,2,8,27
893.061,27,13,12,23
893.062,19,4,1,7
893.062,2,-7,-7,-3
893.063,-6,-8,-3,-1
893.063,-3,-2,-1,-4
893.064,-2,3,2,-8
893.064,-6,6,5,-7
893.065,-7,6,7,-2
893.066,-1,9,15,10
893.066,6,16,26,19
893.067,10,16,28,21
893.067,8,10,19,13
893.068,-2,-4,2,1
893.068,-13,-17,-9,-9
893.069,-19,-21,-14,-13
893.07,-17,-18,-12,-6
893.07,-5,-10,-8,2
893.071,10,4,0,10
893.071,22,18,8,13
893.072,24,20,5,6
893.073,20,15,-2,-2
893.073,9,8,-3,-3
893.074,10,11,0,2
893.074,14,13,1,0
893.075,8,5,-3,-2
893.075,6,8,9,12
893.076,14,18,23,20
893.077,17,26,32,14
893.077,-2,3,8,-8
893.078,-19,-11,-5,-18
893.078,-27,-19,-12,-21
893.079,-28,-22,-17,-21
893.079,-26,-26,-22,-14
893.08,-14,-25,-20,3
893.081,6,-17,-14,20
893.081,29,2,-2,29
893.082,40,11,-3,20
893.082,36,17,-1,11
893.083,28,20,4,8
893.083,22,18,6,8
893.084,18,19,13,10
893.085,12,13,8,5
893.085,4,1,-6,-7
893.086,-2,-1,-8,-11
893.086,-3,5,7,0
893.087,-6,6,20,7
893.087,-10,0,20,7
893.088,-13,0,20,5
893.089,-11,5,22,6
893.089,-7,6,16,2
893.09,-6,4,4,-10
893.09,-13,-3,0,-5
893.091,-6,-3,-3,0
893.091,2,3,7,9
893.092,1,-5,2,9
893.093,-2,-16,-10,4
893.093,7,0,1,13
893.094,24,20,9,13
893.094,28,25,3,-1
893.095,17,21,-6,-19
893.095,0,8,-17,-28
893.096,-9,-4,-22,-22
893.097,-3,-5,-17,-8
893.097,9,7,0,5
893.098,11,7,1,2
893.098,3,0,0,3
893.099,1,3,11,14
893.1,4,0,8,11
893.1,0,-4,7,14
893.101,2,-2,15,20
893.101,1,-9,6,16
893.102,0,-14,-4,8
893.102,2,-7,-7,0
893.103,4,0,-4,1
893.104,9,11,6,6
893.104,14,17,12,6
893.105,13,21,14,5
893.105,17,26,10,-3
893.106,10,23,2,-16
893.106,2,18,-5,-22
893.107,-1,15,-3,-15
893.108,5,18,2,-5
893.108,10,17,5,0
893.109,8,8,3,0
893.109,0,0,-1,-8
893.11,-16,-18,-15,-17
893.11,-27,-31,-24,-13
893.111,-19,-28,-12,6
893.112,-5,-20,-3,10
893.112,0,0,25,33
893.113,18,28,59,56
893.113,29,32,55,46
893.114,13,4,15,12
893.114,-4,-12,-11,-12
893.115,-9,-4,-6,-13
893.116,-8,1,0,-9
893.116,-8,0,-2,-10
893.117,-8,1,-1,-7
893.117,-5,1,-1,-5
893.118,-2,2,1,1
893.118,3,0,-4,-1
893.119,0,-9,-20,-15
893.12,-5,-15,-29,-14
893.12,5,-5,-21,0
893.121,23,5,-17,5
893.121,34,15,-13,5
893.122,36,23,-3,9
893.122,36,31,13,23
893.123,38,27,9,13
893.124,21,13,-1,0
893.124,8,12,9,8
893.125,12,18,22,17
893.125,11,13,22,16
893.126,0,0,16,14
893.127,-7,0,25,13
893.127,-24,-22,7,-1
893.128,-40,-45,-22,-21
893.128,-42,-44,-24,-17
893.129,-23,-20,-9,-5
893.129,-7,0,10,8
893.13,0,4,18,20
893.131,12,16,28,30
893.131,21,20,29,29
893.132,14,-2,-1,8
893.132,1,-16,-16,-1
893.133,0,-8,-8,4
893.133,9,0,-2,10
893.134,16,4,0,13
893.135,22,10,0,7
893.135,21,24,16,6
893.136,8,17,7,-13
893.136,-9,11,6,-17
893.137,-16,2,0,-18
893.137,-12,3,-3,-14
893.138,-5,5,1,-1
893.139,1,-2,-5,2
893.139,7,0,-4,5
893.14,12,0,-7,4
893.14,10,-9,-25,-9
893.141,0,-21,-33,-9
893.141,6,-11,-18,8
893.142,24,12,8,24
893.143,29,16,13,25
893.143,21,1,-3,10
893.144,16,5,-7,-2
893.144,10,7,-5,-3
893.145,11,12,-4,-8
893.145,11,21,3,-9
893.146,11,29,8,-9
893.147,7,25,8,-7
893.147,3,5,-16,-22
893.148,0,9,-4,-6
893.148,13,31,35,25
893.149,21,35,50,38
893.149,14,19,36,22
893.15,-6,0,18,2
893.151,-28,-19,4,-8
893.151,-42,-36,-8,-17
893.152,-46,-38,-12,-21
893.152,-44,-33,-7,-11
893.153,-34,-30,-1,6
893.154,-6,-2,19,20
893.154,7,13,26,17
893.155,7,20,33,22
893.155,15,23,23,13
893.156,13,14,2,-3
893.156,6,5,-11,-14
893.157,2,0,-17,-12
893.157,7,8,-10,-4
893.158,19,16,-5,1
893.159,28,23,-2,0
893.159,20,12,-12,-11
893.16,2,0,-10,-6
893.16,0,1,7,8
893.161,0,-3,6,8
893.162,-5,-10,2,8
893.162,-4,-10,7,16
893.163,0,-13,0,8
893.163,0,-8,1,10
893.164,7,7,13,14
893.164,14,13,14,16
893.165,19,16,12,13
893.166,14,7,-2,-4
893.166,0,-1,-9,-12
893.167,-4,3,0,-5
893.167,0,2,1,4
893.168,8,3,-3,0
893.168,7,3,-5,-1
893.169,10,10,0,1
893.17,9,2,-5,3
893.17,8,-11,-23,-4
893.171,6,-11,-25,-10
893.171,0,-8,-18,-7
893.172,2,0,0,8
893.172,14,19,29,32
893.173,30,41,58,48
893.174,25,28,42,28
893.174,3,2,12,0
893.175,-15,-9,1,-12
893.175,-27,-20,-13,-24
893.176,-31,-23,-22,-33
893.177,-32,-20,-22,-34
893.177,-27,-13,-16,-20
893.178,-8,-4,-13,-9
893.178,3,-1,-16,-1
893.179,21,13,0,20
893.179,42,29,15,34
893.18,48,33,25,42
893.18,47,28,19,31
893.181,32,15,12,24
893.182,17,-6,-6,15
893.182,7,-19,-16,3
893.183,-4,-18,-3,1
893.183,-15,-16,0,-4
893.184,-17,-8,5,-2
893.185,-11,-4,0,-5
893.185,-2,1,-4,-11
893.186,0,6,-1,-7
893.186,2,9,1,0
893.187,9,14,9,11
893.187,18,15,2,-2
893.188,4,8,6,0
893.189,1,15,23,11
893.189,-2,8,21,7
893.19,-9,0,14,1
893.19,-17,-8,8,1
893.191,-17,-13,1,0
893.191,-13,-14,-3,0
893.192,-3,-7,-2,8
893.193,10,1,-5,3
893.193,13,3,-11,-5
893.194,12,5,-14,-9
893.194,13,13,-5,-2
893.195,17,17,1,2
893.195,18,17,2,2
893.196,20,33,29,16
893.197,17,29,27,9
893.197,0,3,-4,-17
893.198,-21,-18,-18,-24
893.198,-23,-16,-10,-14
893.199,-19,-12,-3,-9
893.199,-17,-13,-7,-9
893.2,-12,-11,-6,-1
893.201,-2,-8,-3,7
893.201,6,-2,4,17
893.202,17,10,16,31
893.202,32,27,35,44
893.203,37,27,30,38
893.203,32,19,16,21
893.204,16,5,6,13
893.205,1,-12,-5,5
893.205,-2,-14,-13,-9
893.206,-8,-3,0,-7
893.206,-10,0,8,-2
893.207,-12,-6,-2,-11
893.208,-17,-14,-18,-22
893.208,-12,-4,-14,-18
893.209,1,14,6,1
893.209,14,19,9,6
893.21,13,11,3,6
893.21,13,6,-4,2
893.211,10,1,-9,-1
893.212,10,1,-9,0
893.212,11,3,-6,2
893.213,12,3,-5,2
893.213,14,17,9,7
893.214,15,22,18,8
893.214,8,15,11,-1
893.215,-2,11,10,-8
893.216,-13,7,15,-3
893.216,-13,0,11,-3
893.217,-15,-5,0,-8
893.217,-15,-4,3,0
893.218,-6,-2,4,3
893.218,-4,-9,-5,0
893.219,-6,-16,-13,-1
893.22,-4,-13,-7,7
893.22,5,-10,-5,14
893.221,12,-6,-3,18
893.221,15,-7,-4,19
893.222,18,-4,-3,23
893.222,27,7,5,28
893.223,33,15,8,21
893.224,28,18,8,9
893.224,13,11,5,2
893.225,6,10,5,0
893.225,1,9,8,0
893.226,-2,1,0,-4
893.227,-3,-1,-4,-8
893.227,-5,-4,-9,-14
893.228,-13,-9,-10,-10
893.228,-5,-1,-4,-4
893.229,6,10,4,3
893.229,11,13,5,1
893.23,6,8,0,0
893.23,6,5,-4,0
893.231,14,6,-13,-5
893.232,14,12,0,4
893.232,16,13,7,14
893.233,16,3,-4,3
893.233,15,13,0,-4
893.234,12,23,11,-2
893.234,3,16,12,-3
893.235,-3,14,16,-2
893.236,-9,12,27,3
893.236,-17,6,33,9
893.237,-27,-13,18,-2
893.237,-41,-32,-4,-18
893.238,-46,-36,-15,-26
893.239,-41,-23,-4,-10
893.239,-18,-7,4,9
893.24,6,0,1,14
893.24,18,2,-1,20
893.241,30,10,4,28
893.241,37,15,4,23
893.242,32,14,4,21
893.243,29,15,7,18
893.243,20,6,1,12
893.244,16,8,6,11
893.244,15,15,12,5
893.245,5,13,12,0
893.245,-5,1,-1,-10
893.246,-10,-7,-13,-18
893.247,-14,-11,-13,-12
893.247,-6,-4,-5,-5
893.248,-1,2,0,-6
893.248,-3,5,3,-3
893.249,0,8,6,0
893.249,2,8,5,2
893.25,4,5,1,1
893.251,2,0,-1,2
893.251,3,-3,-4,3
893.252,6,0,0,8
893.252,12,9,7,10
893.253,14,16,12,7
893.253,12,19,15,3
893.254,5,14,10,-2
893.255,0,10,6,-5
893.255,-2,10,6,-6
893.256,-4,3,0,-9
893.256,-8,-2,-5,-12
893.257,-11,-8,-9,-10
893.257,-9,-7,-5,-2
893.258,0,0,0,3
893.259,3,0,1,5
893.259,3,-4,-2,7
893.26,5,-6,-5,10
893.26,9,-7,-8,10
893.261,12,-7,-10,9
893.261,14,-4,-7,13
893.262,20,3,0,17
893.263,23,9,4,18
893.263,23,10,4,14
893.264,19,14,9,12
893.264,13,10,8,9
893.265,11,13,15,11
893.266,7,12,17,7
893.266,0,7,12,0
893.267,-9,-1,1,-7
893.267,-13,-11,-9,-11
893.268,-10,-10,-11,-11
893.268,-8,-6,-8,-10
893.269,-7,-3,-4,-6
893.27,-3,0,1,1
893.27,1,0,4,9
893.271,5,0,6,16
893.271,14,1,1,14
893.272,13,2,4,16
893.272,14,2,-4,-2
893.273,5,8,0,-11
893.273,0,17,11,-7
893.274,-3,17,13,-6
893.275,0,21,16,-6
893.275,2,28,23,-1
893.276,1,20,16,-2
893.276,-3,10,4,-10
893.277,-11,-2,-7,-17
893.278,-14,-7,-9,-16
893.278,-12,-4,-4,-8
893.279,-6,1,5,4
893.279,0,1,9,13
893.28,2,-9,0,14
893.28,1,-18,-10,9
893.281,1,-18,-11,7
893.282,4,-13,-7,13
893.282,13,-2,2,24
893.283,25,6,6,26
893.283,29,13,10,23
893.284,29,22,15,17
893.284,19,16,10,6
893.285,7,9,5,-1
893.286,0,4,3,-3
893.286,-2,3,0,-5
893.287,-4,1,-1,-8
893.287,-7,-2,-5,-10
893.288,-8,-3,-4,-9
893.289,-5,0,0,-2
893.289,0,3,2,0
893.29,2,3,2,1
893.29,1,0,-1,0
893.291,0,-1,-2,1
893.291,3,0,0,5
893.292,6,2,3,9
893.293,11,8,6,10
893.293,14,18,15,7
893.294,8,18,16,2
893.294,2,13,10,-3
893.295,-1,12,9,-5
893.295,-5,6,5,-10
893.296,-10,0,-2,-12
893.297,-11,-2,-4,-13
893.297,-11,-3,-4,-9
893.298,-6,0,0,-2
893.298,0,2,2,0
893.299,0,-2,-1,3
893.299,1,-5,-3,8
893.3,7,-6,-4,13
893.301,12,-4,-1,16
893.301,14,-4,-2,17
893.302,16,-2,-1,17
893.302,18,1,2,18
893.303,18,2,3,17
893.303,19,10,8,15
893.304,17,11,9,10
893.305,12,11,7,4
893.305,6,9,5,0
893.306,1,5,1,-4
893.306,0,3,0,-7
893.307,-3,0,-3,-7
893.307,-5,-1,-5,-9
893.308,-5,0,-1,-4
893.309,0,4,1,0
893.309,1,2,0,-1
893.31,0,1,-1,-1
893.31,1,3,2,1
893.311,2,3,3,3
893.312,3,0,0,2
893.312,2,-1,-2,0
893.313,2,4,3,3
893.313,10,18,16,7
893.314,10,22,18,2
893.314,4,16,11,-3
893.315,0,16,12,-5
893.315,-5,7,3,-11
893.316,-9,2,2,-8
893.317,-9,0,1,-5
893.317,-8,-3,0,-3
893.318,-6,-4,-3,-2
893.318,-3,-4,-3,-1
893.319,-1,-7,-7,0
893.32,0,-10,-10,4
893.32,5,-9,-8,9
893.321,10,-6,-5,15
893.321,15,-5,-3,19
893.322,20,0,1,24
893.322,23,4,4,22
893.323,21,3,3,19
893.324,22,10,9,19
893.324,19,12,9,10
893.325,11,8,4,3
893.325,6,9,3,-1
893.326,1,7,2,-7
893.326,-2,6,1,-9
893.327,-6,1,0,-8
893.328,-6,1,0,-7
893.328,-6,1,2,-6
893.329,-5,4,6,0
893.329,-2,4,7,1
893.33,-2,1,4,2
893.33,-2,-1,3,3
893.331,0,-1,3,5
893.332,0,-6,-3,3
893.332,2,-6,-6,2
893.333,6,3,1,3
893.333,11,18,13,4
893.334,9,21,16,0
893.334,1,15,11,-5
893.335,-2,14,10,-7
893.336,-7,9,8,-7
893.336,-9,7,12,-2
893.337,-7,4,10,0
893.337,-6,0,5,-1
893.338,-7,-5,0,-2
893.339,-7,-8,-3,-1
893.339,-8,-14,-10,0
893.34,-2,-15,-13,5
893.34,5,-12,-11,13
893.341,18,-6,-11,16
893.341,24,-2,-11,15
893.342,27,2,-9,15
893.343,30,8,-5,15
893.343,28,11,-1,12
893.344,24,16,4,7
893.344,13,15,8,2
893.345,5,13,11,2
893.345,4,14,12,3
893.346,3,13,11,0
893.346,0,10,7,-4
893.347,-4,4,3,-7
893.348,-8,0,0,-8
893.348,-6,2,2,-4
893.349,-4,1,1,-1
893.349,0,2,0,-1
893.35,0,0,0,0
893.351,-1,-4,-1,2
893.351,-1,-5,-1,2
893.352,-1,-7,-2,5
893.352,2,-1,3,8
893.353,5,7,11,7
893.353,5,15,17,4
893.354,0,12,17,0
893.354,-6,9,14,-3
893.355,-11,4,10,-5
893.356,-10,-1,0,-2
893.356,3,6,-2,0
893.357,15,13,-5,-10
893.357,2,7,-5,-12
893.358,-3,3,-1,-4
893.359,0,3,0,-1
893.359,0,-5,-9,-1
893.36,2,-7,-11,3
893.36,5,-9,-10,6
893.361,8,-7,-4,14
893.361,10,-9,-3,18
893.362,14,-5,0,20
893.363,16,-1,4,23
893.363,24,9,10,23
893.364,27,18,13,16
893.364,19,17,11,7
893.365,10,14,6,-3
893.365,0,8,2,-8
893.366,-5,6,2,-12
893.367,-10,3,3,-11
893.367,-10,4,3,-12
893.368,-10,6,6,-9
893.368,-15,1,7,-6
893.369,-13,-1,6,0
893.37,-5,0,6,1
893.37,-4,0,4,2
893.371,-3,-2,3,9
893.371,9,2,2,14
893.372,19,7,0,8
893.372,13,4,0,4
893.373,9,10,7,4
893.374,8,16,15,6
893.374,9,17,13,2
893.375,9,20,11,-6
893.375,-2,11,5,-15
893.376,-20,-5,-2,-16
893.376,-20,-9,-5,-11
893.377,-6,-1,-7,-10
893.378,0,3,-3,-8
893.378,-4,-1,-2,-4
893.379,-6,-3,1,2
893.379,-5,-9,-1,7
893.38,2,-8,-3,11
893.38,7,-8,-5,13
893.381,10,-10,-4,23
893.382,25,-1,-3,28
893.382,42,15,0,19
893.383,28,8,0,18
893.383,29,10,0,19
893.384,36,22,3,9
893.384,25,19,0,0
893.385,10,11,-2,-13
893.386,-9,0,-5,-19
893.386,-21,-4,0,-16
893.387,-25,-5,8,-8
893.387,-24,-7,11,-3
893.388,-20,-5,12,0
893.388,-21,-8,12,1
893.389,-16,-6,12,7
893.39,-6,0,16,19
893.39,16,16,18,24
893.391,30,25,11,11
893.391,19,12,0,1
893.392,7,4,-3,-5
893.393,-4,-4,-3,-3
893.393,-2,4,5,2
893.394,4,10,5,3
893.394,15,17,3,0
893.395,16,19,1,-7
893.395,7,14,0,-15
893.396,-8,2,-5,-19
893.396,-17,-5,-8,-19
893.397,-16,-3,-1,-11
893.398,-10,0,3,-6
893.398,-8,4,8,-3
893.399,-13,-4,7,-1
893.399,-19,-15,6,9
893.4,-7,-11,8,25
893.401,15,0,9,26
893.401,20,1,5,24
893.402,19,-2,0,21
893.402,22,1,-1,20
893.403,31,11,-1,18
893.403,41,27,0,7
893.404,32,31,4,-6
893.405,7,16,0,-16
893.405,-3,11,-3,-18
893.406,-1,14,0,-18
893.406,-2,17,2,-19
893.407,-8,12,4,-18
893.407,-12,11,7,-19
893.408,-17,9,9,-18
893.409,-23,3,10,-12
893.409,-17,3,9,-10
893.41,-14,3,10,-2
893.41,-7,5,10,1
893.411,-4,3,8,1
893.411,-5,-3,3,3
893.412,0,0,2,3
893.413,3,6,10,5
893.413,1,15,26,10
893.414,-2,16,29,5
893.414,-14,8,26,0
893.415,-22,2,23,2
893.415,-18,-2,14,3
893.416,-6,4,13,5
893.417,-1,5,10,3
893.417,-2,-3,-1,0
893.418,-1,-8,-8,3
893.418,7,-6,-12,15
893.419,42,19,-10,17
893.419,60,32,-18,5
893.42,53,28,-24,-9
893.421,32,16,-26,-22
893.421,6,1,-24,-32
893.422,-25,-19,-19,-27
893.422,-38,-31,-12,-13
893.423,-29,-22,3,6
893.424,-10,-2,21,20
893.424,2,7,28,28
893.425,13,13,26,30
893.425,26,27,28,24
893.426,23,21,18,13
893.426,10,6,5,4
893.427,-1,-3,-1,0
893.428,-3,-10,-7,-2
893.428,-6,-13,-10,0
893.429,1,-2,-2,1
893.429,1,1,3,2
893.43,-2,-3,2,6
893.43,1,-2,0,9
893.431,13,4,-1,5
893.432,14,4,-4,1
893.432,7,1,-3,4
893.433,10,5,2,7
893.433,13,13,7,3
893.434,5,8,7,-1
893.434,-5,1,4,-2
893.435,-7,0,6,2
893.435,-3,-2,3,2
893.436,0,-1,0,0
893.437,-1,-3,-2,0
893.437,2,0,0,2
893.438,3,2,0,0
893.438,0,-2,-3,0
893.439,1,-5,-9,2
893.44,13,5,-5,7
893.44,24,12,-2,6
893.441,18,5,-7,1
893.441,4,-9,-13,0
893.442,0,-14,-10,5
893.442,2,-6,2,16
893.443,13,8,15,23
893.444,19,17,23,22
893.444,15,13,20,14
893.445,-4,-8,5,4
893.445,-13,-19,-5,1
893.446,-7,-10,0,2
893.446,-4,0,9,10
893.447,7,8,10,10
893.448,9,6,5,3
893.448,0,-2,-2,-3
893.449,-6,-9,-5,-3
893.449,-9,-13,-7,2
893.45,0,-8,-3,12
893.45,22,11,2,16
893.451,30,14,-2,9
893.452,25,10,-6,2
893.452,18,10,-2,-3
893.453,4,5,2,-2
893.453,-1,4,4,0
893.454,2,6,3,1
893.454,9,10,0,0
893.455,14,13,-4,-2
893.456,20,16,-10,-7
893.456,21,17,-14,-22
893.457,-2,0,-17,-28
893.457,-25,-18,-17,-19
893.458,-18,-12,-5,-7
893.458,-11,-5,4,5
893.459,0,1,8,10
893.46,5,3,10,12
893.46,1,-2,7,14
893.461,7,-3,4,15
893.461,9,-5,0,16
893.462,12,-1,4,20
893.463,19,7,9,22
893.463,25,18,14,20
893.464,25,21,13,9
893.464,9,8,2,-6
893.465,-14,-9,-2,-10
893.465,-25,-15,3,0
893.466,-16,-11,7,7
893.466,-5,-4,10,10
893.467,0,2,9,12
893.468,8,4,5,11
893.468,14,7,2,7
893.469,15,13,5,3
893.469,9,10,1,-3
893.47,2,4,-1,-5
893.471,-1,2,-1,-3
893.471,-2,-3,-4,-6
893.472,-12,-14,-7,-4
893.472,-10,-9,-1,1
893.473,-3,3,12,10
893.473,7,12,16,17
893.474,21,20,13,12
893.475,20,20,7,2
893.475,8,5,-6,-7
893.476,1,0,-11,-13
893.476,-6,-7,-12,4
893.477,29,18,-9,1
893.477,35,28,-8,-20
893.478,-5,0,-14,-23
893.479,-22,-14,-12,-17
893.479,-23,-20,-10,-6
893.48,-13,-14,-2,5
893.48,1,-1,8,16
893.481,14,11,16,19
893.482,14,11,17,18
893.482,13,9,14,16
893.483,11,8,10,12
893.483,11,10,9,10
893.484,10,9,8,8
893.484,9,7,3,2
893.485,1,1,1,-3
893.486,-7,-4,0,-7
893.486,-17,-11,1,3
893.487,0,1,6,5
893.487,2,5,10,0
893.488,-12,-6,7,4
893.488,-10,-7,7,9
893.489,0,-3,4,11
893.49,10,6,4,10
893.49,11,4,3,13
893.491,18,8,0,12
893.491,23,13,-3,-2
893.492,2,-1,-10,-7
893.492,-3,-5,-7,0
893.493,10,12,5,0
893.494,3,10,8,1
893.494,2,7,3,3
893.495,15,18,1,-4
893.495,11,15,-3,-11
893.496,3,8,-6,-10
893.496,2,3,-11,-11
893.497,3,3,-14,-19
893.498,-9,-2,-8,-18
893.498,-16,-5,0,-6
893.499,-11,-3,5,6
893.499,0,-5,0,11
893.5,9,0,0,2
893.5,-12,-16,0,7
893.501,-11,-17,7,25
893.502,8,-6,11,31
893.502,19,0,11,29
893.503,23,7,15,27
893.503,24,17,19,25
893.504,24,21,19,19
893.504,22,19,9,3
893.505,5,7,1,-4
893.506,-2,1,-1,-8
893.506,-9,-4,-4,-10
893.507,-15,-10,-7,-10
893.507,-15,-11,-6,-5
893.508,-6,-2,0,6
893.508,12,9,2,6
893.509,17,12,-2,-4
893.51,1,0,-5,-7
893.51,-3,-3,-4,-1
893.511,1,0,-3,0
893.511,5,0,-2,1
893.512,7,6,3,5
893.512,11,13,10,6
893.513,10,16,13,4
893.514,4,9,6,-2
893.514,-2,3,2,-3
893.515,0,9,8,0
893.515,-1,4,5,0
893.516,-5,-6,-3,-1
893.516,-3,-5,-3,0
893.517,1,0,-2,0
893.518,2,2,1,2
893.518,3,3,3,6
893.519,6,2,1,5
893.519,6,0,-2,2
893.52,5,-2,-5,3
893.521,8,1,-2,6
893.521,10,2,0,5
893.522,5,-1,0,7
893.522,5,-1,0,5
893.523,0,-4,1,8
893.523,7,6,10,13
893.524,12,12,14,14
893.525,12,9,8,8
893.525,11,10,6,4
893.526,9,10,2,1
893.526,14,15,0,-7
893.527,0,4,-2,-9
893.527,-4,2,-1,-11
893.528,-12,-3,0,-9
893.529,-14,-6,1,-4
893.529,-11,-4,2,-2
893.53,-10,-5,5,6
893.53,-1,-1,6,19
893.531,27,19,6,13
893.531,29,21,2,-1
893.532,5,4,-3,-5
893.533,0,2,0,-2
893.533,0,8,6,-2
893.534,-2,5,5,-3
893.534,-3,5,5,-3
893.535,-4,6,8,0
893.535,-3,3,6,0
893.536,-1,2,1,-3
893.537,-6,-5,-3,-3
893.537,-6,-8,-5,0
893.538,-1,-2,1,5
893.538,5,6,9,12
893.539,12,8,6,14
893.539,22,11,0,6
893.54,14,6,-3,0
893.541,6,2,-1,1
893.541,5,2,0,3
893.542,3,-2,-2,2
893.542,0,-7,-5,1
893.543,-3,-11,-3,6
893.543,6,5,10,12
893.544,9,11,14,11
893.545,7,10,11,6
893.545,3,7,8,3
893.546,1,2,4,3
893.546,3,3,3,4
893.547,9,9,1,-3
893.547,0,1,-4,-7
893.548,-7,-7,-6,-1
893.549,2,0,0,3
893.549,9,5,0,1
893.55,2,0,-1,0
893.55,1,0,-1,1
893.551,4,0,0,5
893.552,7,4,3,7
893.552,9,6,3,3
893.553,6,5,3,4
893.553,9,10,5,3
893.554,9,14,8,-2
893.554,-3,4,5,-5
893.555,-13,-4,3,-5
893.556,-15,-13,-2,-5
893.556,-18,-16,-2,2
893.557,-6,-5,7,14
893.557,10,6,12,18
893.558,15,8,7,13
893.558,12,4,1,8
893.559,10,1,-1,12
893.56,25,13,-2,8
893.56,25,11,-7,-4
893.561,3,-4,-13,-7
893.561,-3,-10,-11,-3
893.562,0,-4,-4,2
893.562,5,1,1,7
893.563,10,8,4,10
893.564,14,12,8,8
893.564,12,11,5,1
893.565,4,7,2,-2
893.565,-1,3,2,-2
893.566,-2,1,2,-1
893.566,-2,2,4,1
893.567,0,5,7,1
893.568,0,5,7,0
893.568,-4,1,5,1
893.569,-1,0,2,3
893.569,4,4,3,4
893.57,5,4,1,1
893.57,4,3,0,0
893.571,2,-1,-3,0
893.572,2,-2,-7,0
893.572,2,-3,-5,3
893.573,10,8,6,7
893.573,11,14,10,3
893.574,6,13,11,2
893.574,3,14,12,1
893.575,1,12,10,-4
893.576,-6,5,6,-8
893.576,-11,2,4,-7
893.577,-11,-1,1,-5
893.577,-7,-4,-1,-3
893.578,-7,-8,-4,0
893.578,-7,-16,-9,3
893.579,-2,-18,-11,10
893.58,8,-10,-5,17
893.58,20,8,8,22
893.581,24,16,14,21
893.581,23,15,11,15
893.582,17,11,6,9
893.583,14,10,2,2
893.583,6,5,0,-3
893.584,1,4,0,-3
893.584,0,4,1,-2
893.585,0,4,1,-2
893.585,0,4,0,-3
893.586,1,4,0,-5
893.587,1,6,0,-5
893.587,-1,5,2,-2
893.588,-2,2,2,-3
893.588,-7,-2,0,-4
893.589,-8,-4,1,0
893.589,-4,-2,4,4
893.59,-1,0,7,9
893.591,3,1,6,9
893.591,5,0,3,9
893.592,9,2,2,9
893.592,13,10,4,8
893.593,18,19,10,10
893.593,23,24,8,1
893.594,13,17,2,-11
893.595,-8,1,-2,-13
893.595,-17,-12,-10,-11
893.596,-11,-11,-10,-7
893.596,-2,-2,-3,0
893.597,5,8,5,0
893.597,-1,1,5,1
893.598,-5,-4,2,9
893.599,8,2,2,11
893.599,17,9,1,3
893.6,5,-2,-1,4
893.6,3,-3,0,8
893.601,10,1,0,6
893.602,7,-1,0,6
893.602,7,0,0,10
893.603,15,8,4,11
893.603,20,16,7,8
893.604,14,13,6,1
893.604,2,3,1,-3
893.605,-4,0,0,-5
893.606,-7,-1,3,-1
893.606,-5,0,4,2
893.607,0,3,5,5
893.607,10,9,3,1
893.608,6,7,1,-2
893.608,0,2,1,0
893.609,0,0,0,1
893.61,2,0,-1,0
893.61,4,2,-2,-1
893.611,0,-1,-2,0
893.611,0,0,1,1
893.612,-1,0,3,3
893.612,-1,0,6,5
893.613,2,7,11,6
893.614,3,9,12,7
893.614,4,7,11,9
893.615,11,14,10,4
893.615,7,11,5,-4
893.616,-4,1,0,-7
893.616,-10,-4,0,-4
893.617,-5,-1,1,0
893.618,0,2,4,1
893.618,2,4,2,0
893.619,0,0,-1,0
893.619,0,-1,-2,1
893.62,3,0,-1,4
893.62,6,0,0,5
893.621,6,-1,-3,5
893.622,5,-8,-8,8
893.622,10,-3,-4,11
893.623,17,7,3,12
893.623,16,13,9,10
893.624,11,13,11,7
893.624,6,8,9,5
893.625,3,5,6,2
893.626,-1,2,3,-1
893.626,-4,1,4,-1
893.627,-3,2,4,1
893.628,3,7,6,5
893.628,15,18,6,1
893.628,10,11,-1,-8
893.629,-3,0,-8,-12
893.63,-7,-2,-5,-10
893.63,-9,-4,-3,-7
893.631,-10,-7,-1,-1
893.631,-9,-11,-2,3
893.632,-3,-10,0,9
893.633,5,0,7,17
893.633,20,17,17,20
893.634,23,23,17,15
893.634,17,18,11,5
893.635,7,10,4,-1
893.635,0,2,-2,-7
893.636,-4,-2,-6,-8
893.637,-6,-4,-6,-6
893.637,-1,0,-1,-3
893.638,-1,1,0,-2
893.638,-3,0,0,-2
893.639,-3,-4,-2,0
893.639,-2,-6,-4,3
893.64,3,-3,-1,7
893.641,8,2,3,10
893.641,11,5,5,13
893.642,14,5,3,10
893.642,11,5,4,10
893.643,11,6,6,10
893.643,10,9,8,9
893.644,8,7,6,6
893.645,7,8,6,5
893.645,8,9,4,1
893.646,4,4,0,-2
893.646,2,2,-3,-5
893.647,-1,0,-4,-6
893.647,-5,-3,-4,-4
893.648,-3,-1,-1,-2
893.649,-3,0,1,1
893.649,1,4,4,3
893.65,5,7,4,3
893.65,5,8,4,1
893.651,2,2,0,0
893.651,0,0,0,1
893.652,0,0,1,3
893.653,4,3,3,5
893.653,8,9,8,6
893.654,5,9,7,5
893.654,3,6,5,2
893.655,1,7,5,0
893.655,0,3,2,-2
893.656,-1,0,-1,-4
893.657,-3,-1,-1,-1
893.657,-1,0,0,0
893.658,1,1,0,1
893.658,1,0,1,4
893.659,3,0,1,4
893.659,5,1,1,5
893.66,5,3,4,5
893.661,2,0,3,6
893.661,0,-6,-2,5
893.662,3,-4,-1,11
893.662,16,7,2,12
893.663,20,13,3,5
893.664,9,6,4,3
893.664,1,1,3,7
893.665,11,10,4,7
893.665,15,13,1,0
893.666,12,12,-1,-7
893.666,-1,2,-2,-7
893.667,-7,-3,-1,-5
893.668,-7,-3,-1,-4
893.668,-5,-2,-1,-4
893.669,-5,0,3,0
893.669,-2,3,8,5
893.67,1,6,10,5
893.67,1,2,6,4
893.671,-2,-3,1,3
893.672,-2,-5,1,6
893.672,4,0,3,13
893.673,18,13,9,11
893.673,17,15,7,3
893.674,6,7,2,0
893.674,1,6,4,-1
893.675,1,6,3,-1
893.676,1,5,0,-4
893.676,0,2,-1,-6
893.677,-4,0,-3,-5
893.677,-1,1,0,-2
893.678,1,4,1,-1
893.678,-1,-2,-2,-2
893.679,-1,-4,-4,0
893.68,-1,-8,-6,2
893.68,1,-7,-3,5
893.681,0,-5,2,11
893.681,6,0,10,17
893.682,11,6,11,20
893.683,20,13,11,20
893.683,29,21,8,10
893.684,20,17,4,0
893.684,2,4,0,-5
893.685,-3,0,-2,-6
893.685,-7,-3,-2,-4
893.686,-4,1,0,-2
893.686,-1,3,4,0
893.687,-1,2,3,0
893.688,-1,1,1,0
893.688,0,-1,-2,0
893.689,0,-2,-1,1
893.689,3,2,3,6
893.69,5,4,5,7
893.69,8,5,3,5
893.691,5,4,2,3
893.692,4,1,1,3
893.692,4,1,2,3
893.693,4,3,3,3
893.693,3,3,3,3
893.694,2,6,7,3
893.695,2,7,8,2
893.695,-2,0,1,0
893.696,-1,0,1,1
893.696,2,4,3,0
893.697,1,1,0,0
893.697,1,1,0,0
893.698,6,5,0,1
893.699,7,4,-2,-1
893.699,2,-1,-4,0
893.7,2,-1,-4,1
893.7,3,-1,-3,1
893.701,4,0,0,5
893.701,7,2,1,8
893.702,10,7,6,9
893.703,11,7,5,8
893.703,11,10,7,5
893.704,7,10,7,2
893.704,1,3,4,1
893.705,0,1,2,3
893.705,7,8,3,0
893.706,2,4,1,-3
893.707,-4,-2,-1,-3
893.707,-4,-3,-1,0
893.708,0,-1,0,2
893.708,4,6,6,3
893.709,3,5,6,3
893.709,1,2,4,3
893.71,3,3,4,3
893.711,2,0,2,2
893.711,1,-1,0,2
893.712,1,0,1,3
893.712,4,6,6,9
893.713,13,16,11,7
893.714,12,16,8,0
893.714,0,3,1,-4
893.715,-5,0,0,-5
893.715,-6,-1,0,-3
893.716,-2,1,0,-2
893.716,0,1,0,-1
893.717,0,0,0,0
893.718,1,-1,-3,0
893.718,1,-3,-3,3
893.719,4,0,-1,4
893.719,6,1,1,6
893.72,4,0,0,8
893.72,6,0,0,9
893.721,6,-1,1,9
893.721,8,0,2,9
893.722,9,3,3,10
893.723,11,6,5,9
893.723,11,10,8,9
893.724,10,9,6,6
893.724,9,9,3,0
893.725,3,5,1,-2
893.726,0,3,1,-2
893.726,-1,2,2,-1
893.727,-3,-1,0,-1
893.727,-2,-1,-2,-2
893.728,0,2,1,0
893.729,2,5,4,2
893.729,3,4,3,4
893.73,8,5,0,3
893.73,9,6,0,-3
893.731,0,1,-1,-2
893.731,-2,-1,0,1
893.732,0,0,1,3
893.732,1,0,1,3
893.733,6,9,9,7
893.734,9,14,12,6
893.734,6,11,8,0
893.735,1,9,8,-2
893.735,-4,4,3,-7
893.736,-9,-1,0,-7
893.737,-11,-4,1,-2
893.737,-7,-5,1,3
893.738,1,-1,2,9
893.738,12,5,1,6
893.739,11,3,-3,3
893.739,10,1,-4,2
893.74,8,1,-4,3
893.741,8,0,-3,3
893.741,6,-2,-4,3
893.742,5,-2,-2,4
893.742,6,3,2,8
893.743,10,6,7,11
893.743,12,11,11,10
893.744,9,10,8,5
893.745,5,6,5,2
893.745,2,4,2,-1
893.746,-2,0,1,-1
893.746,-3,0,1,-1
893.747,-2,0,2,0
893.747,0,3,4,1
893.748,1,5,4,1
893.749,2,6,6,3
893.749,3,4,5,7
893.75,10,6,0,1
893.75,6,0,-7,-3
893.751,2,-4,-8,-2
893.751,3,-1,-4,0
893.752,4,1,0,2
893.753,5,5,5,4
893.753,5,8,8,6
893.754,6,11,8,4
893.754,6,11,6,0
893.755,1,6,1,-4
893.755,-1,1,-1,-4
893.756,-2,1,1,-2
893.757,0,4,2,-1
893.757,-1,0,1,-1
893.758,-4,-2,0,0
893.758,-4,-3,0,2
893.759,-1,-3,0,5
893.759,3,-1,2,8
893.76,7,1,4,11
893.761,8,1,3,11
893.761,9,1,2,9
893.762,10,4,3,9
893.762,10,6,5,9
893.763,10,3,2,7
893.763,10,4,0,4
893.764,7,6,3,2
893.765,4,6,5,2
893.765,3,8,8,1
893.766,0,5,6,-1
893.766,-5,0,2,-2
893.767,-4,0,1,-2
893.767,-2,1,4,0
893.768,-1,2,3,4
893.769,6,0,-3,2
893.769,6,0,-6,-2
893.77,0,-2,-2,3
893.77,7,4,2,7
893.771,11,8,2,4
893.771,9,7,3,3
893.772,6,6,3,2
893.773,7,10,7,3
893.773,7,10,5,0
893.774,1,6,2,-4
893.774,-2,4,3,-3
893.775,-3,2,2,-4
893.776,-4,2,2,-3
893.776,-4,-1,0,-3
893.777,-5,-3,-2,-3
893.777,-3,-2,0,4
893.778,6,6,4,7
893.778,8,3,2,4
893.779,3,-2,-2,4
893.78,2,-4,-3,5
893.78,5,-3,-2,7
893.781,9,2,1,9
893.781,11,5,3,9
893.782,11,6,4,10
893.782,11,6,4,8
893.783,11,7,4,5
893.784,10,10,7,4
893.784,5,8,5,0
893.785,1,6,4,-1
893.785,-1,4,4,-2
893.786,-3,2,3,-4
893.786,-3,3,3,-3
893.787,-5,1,3,-1
893.788,-4,-1,0,1
893.788,-2,-5,-3,1
893.789,1,-4,-2,5
893.789,6,2,1,7
893.79,9,5,2,7
893.79,10,6,3,5
893.791,7,4,1,4
893.792,6,3,0,3
893.792,6,4,3,2
893.793,7,10,8,3
893.793,4,11,10,2
893.794,2,7,6,0
893.794,0,8,6,-3
893.795,-4,2,1,-5
893.796,-7,-1,-1,-7
893.796,-6,-2,-1,-3
893.797,-2,0,-1,-1
893.797,0,0,-1,0
893.798,1,-1,-1,1
893.799,0,-6,-4,3
893.799,4,-3,0,8
893.8,9,4,5,11
893.8,8,3,4,9
893.801,4,-2,1,10
893.801,9,1,3,14
893.802,19,9,4,11
893.802,16,8,2,8
893.803,16,11,3,5
893.804,14,13,3,0
893.804,5,5,0,-5
893.805,-2,-1,-2,-5
893.805,-4,0,0,-3
893.806,-3,1,2,-1
893.807,-2,1,1,0
893.807,0,1,2,1
893.808,2,3,3,2
893.808,1,0,1,1
893.809,1,1,1,3
893.809,2,1,2,5
893.81,6,4,2,3
893.811,2,0,2,5
893.811,3,0,1,4
893.812,4,1,2,5
893.812,6,6,4,4
893.813,7,11,9,4
893.813,5,11,10,2
893.814,2,9,8,0
893.815,1,8,5,-3
893.815,-1,6,3,-6
893.816,-5,1,0,-6
893.816,-7,-4,-3,-5
893.817,-5,-5,-4,-4
893.817,-4,-4,-3,0
893.818,0,0,1,4
893.819,3,0,3,6
893.819,4,0,3,10
893.82,8,0,1,11
893.82,10,0,-1,11
893.821,18,5,-1,7
893.821,14,5,-1,6
893.822,11,6,3,6
893.823,6,3,3,5
893.823,3,4,5,3
893.824,0,3,6,2
893.824,0,3,5,3
893.825,1,5,7,5
893.825,4,4,3,5
893.826,10,7,0,2
893.827,12,10,-1,-1
893.827,9,10,0,-2
893.828,5,5,-2,-6
893.828,-1,0,-4,-6
893.829,-5,-4,-5,-6
893.829,-4,-3,-2,-3
893.83,-1,0,1,2
893.831,3,3,4,5
893.831,4,3,3,5
893.832,4,1,1,4
893.832,5,5,6,6
893.833,8,11,11,6
893.833,7,12,11,4
893.834,2,7,8,1
893.835,-1,4,5,-1
893.835,-4,0,1,-2
893.836,-4,0,0,-1
893.836,-2,0,1,0
893.837,-1,0,1,0
893.838,0,1,2,1
893.838,0,-1,0,1
893.839,-3,-9,-5,2
893.839,0,-9,-5,7
893.84,7,0,1,12
893.84,11,3,5,14
893.841,13,5,4,12
893.842,16,7,3,10
893.842,14,5,2,7
893.843,11,5,2,7
893.843,11,8,5,4
893.844,9,10,4,1
893.844,5,9,3,-2
893.845,1,5,3,-3
893.846,-1,3,1,-5
893.846,-2,1,-1,-5
893.847,-3,-1,-2,-4
893.847,-2,-1,-2,-2
893.848,-3,-2,0,0
893.848,-2,0,4,5
893.849,4,2,4,7
893.85,9,8,7,6
893.85,6,6,5,4
893.851,2,0,2,1
893.851,-2,-4,0,2
893.852,-1,-1,1,6
893.852,7,8,9,9
893.853,14,16,11,4
893.854,8,13,9,1
893.854,3,9,6,0
893.855,0,3,0,-5
893.855,-5,-1,-5,-7
893.856,-5,-2,-4,-6
893.857,-4,-1,-1,0
893.857,0,1,0,0
893.858,1,3,2,0
893.858,-1,-1,0,0
893.859,0,-3,0,3
893.859,2,-1,1,7
893.86,6,0,0,8
893.861,9,1,1,10
893.861,9,-2,-1,11
893.862,13,2,1,13
893.862,18,10,4,13
893.863,19,14,6,7
893.863,12,11,5,2
893.864,5,8,3,-1
893.865,1,5,2,-4
893.865,-1,5,2,-4
893.866,-2,4,2,-3
893.866,-4,0,0,-3
893.867,-3,-2,-3,-2
893.867,-2,-5,-5,-1
893.868,0,0,0,3
893.869,2,4,5,4
893.869,2,3,6,6
893.87,3,3,7,6
893.87,3,2,5,6
893.871,3,1,4,6
893.871,3,0,1,5
893.872,7,5,3,7
893.873,15,16,9,3
893.873,6,10,6,0
893.874,-2,4,5,-2
893.874,-4,1,2,-3
893.875,-3,1,1,-3
893.875,-4,-1,-1,-2
893.876,-2,-4,-5,0
893.877,2,-2,-3,1
893.877,5,2,0,2
893.878,5,5,3,4
893.878,7,5,1,3
893.879,4,0,-1,2
893.879,5,0,-1,5
893.88,9,2,-2,3
893.881,6,1,-1,4
893.881,6,1,0,4
893.882,7,5,5,8
893.882,6,4,5,5
893.883,5,4,5,4
893.883,2,4,6,5
893.884,5,6,8,9
893.885,13,15,9,3
893.885,6,8,4,-1
893.886,0,1,-2,-1
893.886,5,4,-3,-4
893.887,3,4,-2,-6
893.888,-3,0,-1,-4
893.888,-4,0,0,-1
893.889,-1,0,1,0
893.889,-1,0,2,2
893.89,0,0,3,3
893.89,0,1,5,5
893.891,2,2,6,7
893.891,4,2,5,8
893.892,5,3,4,6
893.893,8,9,9,7
893.893,8,11,9,5
893.894,8,11,6,2
893.894,6,9,2,-3
893.895,-2,1,-2,-7
893.896,-7,-3,-2,-5
893.896,-5,-2,-1,-3
893.897,-3,-1,0,0
893.897,0,-1,0,1
893.898,1,0,1,3
893.898,3,0,0,4
893.899,6,0,0,7
893.9,9,2,0,6
893.9,9,1,-1,5
893.901,7,0,0,7
893.901,5,0,0,7
893.902,7,1,2,7
893.902,6,2,4,8
893.903,8,6,7,9
893.904,8,4,5,8
893.904,7,3,1,6
893.905,12,9,4,4
893.905,13,15,5,0
893.906,6,9,0,-3
893.906,0,2,0,-5
893.907,-1,1,0,-4
893.908,-2,0,-2,-4
893.908,-2,-1,-2,-5
893.909,-4,-2,-1,-1
893.909,0,1,1,2
893.91,3,5,4,3
893.911,3,4,3,1
893.911,0,2,2,2
893.912,2,4,5,5
893.912,5,8,9,7
893.913,6,9,10,5
893.913,3,7,7,1
893.914,0,5,5,0
893.914,0,5,5,0
893.915,0,4,4,0
893.916,-3,0,0,-3
893.916,-5,-3,-2,-2
893.917,-4,-2,0,0
893.917,0,1,3,3
893.918,2,3,5,5
893.919,2,0,2,5
893.919,0,-5,-2,4
893.92,2,-6,-4,7
893.92,10,1,0,12
893.921,19,9,1,13
893.921,22,12,0,8
893.922,19,11,-1,2
893.923,10,4,-2,0
893.923,5,5,0,0
893.924,4,5,1,-2
893.924,0,2,1,-2
893.925,0,3,3,0
893.925,0,3,4,1
893.926,0,3,4,0
893.927,-2,1,4,0
893.927,-2,2,5,3
893.928,1,5,7,4
893.928,2,4,5,2
893.929,0,0,1,1
893.929,0,-2,0,2
893.93,0,0,1,5
893.931,3,0,1,5
893.931,4,-2,-1,5
893.932,7,2,1,6
893.932,10,10,7,6
893.933,9,13,9,5
893.933,9,13,8,3
893.934,8,13,6,-2
893.935,1,6,1,-6
893.935,-5,0,-4,-9
893.936,-6,-1,-4,-9
893.936,-8,-4,-3,-5
893.937,-3,-1,-1,0
893.938,1,2,3,3
893.938,1,2,5,5
893.939,0,0,4,6
893.939,3,-2,0,6
893.94,3,-5,-2,8
893.94,11,2,1,12
893.941,18,9,1,6
893.942,11,5,0,3
893.942,6,1,0,4
893.943,5,0,1,6
893.943,8,4,3,5
893.944,6,3,3,4
893.944,2,3,5,4
893.945,3,4,6,5
893.945,4,6,7,4
893.946,2,4,4,0
893.947,0,1,1,0
893.947,3,6,3,0
893.948,3,6,5,1
893.948,2,4,4,1
893.949,0,0,0,-2
893.95,-2,-1,-1,-1
893.95,-1,-1,0,0
893.951,1,0,1,3
893.951,5,4,3,6
893.952,10,7,1,3
893.952,12,13,3,-2
893.953,1,6,2,-3
893.954,-4,-2,0,0
893.954,0,1,3,2
893.955,3,7,5,0
893.955,0,5,3,-1
893.956,0,5,4,0
893.956,2,5,3,2
893.957,2,1,0,0
893.958,0,-2,-3,-2
893.958,-1,-4,-4,0
893.959,1,0,0,4
893.959,5,2,2,7
893.96,7,0,-1,5
893.96,5,-2,-2,5
893.961,3,-3,0,7
893.962,7,1,4,12
893.962,11,4,6,14
893.963,13,7,6,10
893.963,10,8,7,7
893.964,7,7,6,6
893.964,9,9,6,5
893.965,10,13,6,0
893.966,2,7,2,-5
893.966,-6,-1,-1,-7
893.967,-10,-5,-3,-3
893.967,-4,-6,-6,1
893.968,8,2,-2,1
893.968,8,8,3,0
893.969,2,5,3,1
893.97,0,1,0,0
893.97,2,2,1,0
893.971,0,1,1,1
893.971,0,0,1,3
893.972,3,4,5,6
893.972,10,11,10,8
893.973,8,13,10,3
893.974,2,5,4,-1
893.974,-2,1,2,-2
893.975,-3,3,4,-2
893.975,-4,3,4,0
893.976,-3,0,1,-1
893.977,-4,-3,0,0
893.977,-1,0,1,2
893.978,1,0,2,4
893.978,4,0,1,6
893.979,8,1,-1,7
893.979,12,4,-3,4
893.98,10,2,-2,4
893.981,10,3,-1,4
893.981,7,3,0,4
893.982,5,0,-1,4
893.982,7,2,1,6
893.983,11,10,7,7
893.983,9,11,8,4
893.984,4,7,7,2
893.985,0,4,4,-1
893.985,-3,0,0,-1
893.986,-2,0,1,0
893.986,1,3,5,5
893.987,9,9,5,2
893.987,6,8,4,-2
893.988,0,1,0,-3
893.989,-6,-8,-5,-3
893.989,-4,-6,-3,2
893.99,2,0,1,6
893.99,8,6,4,7
893.991,9,5,3,5
893.991,6,2,1,5
893.992,6,5,3,4
893.993,6,8,7,4
893.993,3,5,6,1
893.994,0,5,5,0
893.994,0,6,6,0
893.995,0,4,3,-1
893.995,-1,0,0,-3
893.996,-3,-1,0,-1
893.997,0,0,0,0
893.997,2,2,2,3
893.998,4,3,2,3
893.998,4,1,-1,1
893.999,3,0,-3,0
894,1,-2,-2,2
894,3,-1,0,6
894.001,7,-1,0,8
894.001,8,0,0,8
894.002,10,3,3,9
894.002,10,5,5,10
894.003,11,9,8,9
894.003,9,6,5,5
894.004,6,7,5,2
894.005,3,8,5,0
894.005,2,6,3,0
894.006,0,3,1,0
894.006,1,2,0,-1
894.007,2,4,-1,-3
894.008,2,4,1,-1
894.008,1,4,1,-2
894.009,0,3,1,-1
894.009,-1,-1,-1,-1
894.01,-1,-2,-2,0
894.01,0,-3,-3,1
894.011,2,0,0,5
894.012,4,2,3,6
894.012,6,7,9,9
894.013,9,11,11,8
894.013,7,10,9,6
894.014,4,6,6,3
894.014,4,8,5,0
894.015,0,3,1,-3
894.016,-4,-1,0,-4
894.016,-5,-3,-1,-3
894.017,-6,-3,0,0
894.017,-2,-1,2,3
894.018,0,0,2,4
894.018,0,-4,0,5
894.019,4,-1,0,11
894.02,17,7,1,11
894.02,21,12,1,6
894.021,13,4,-3,1
894.021,6,0,-4,1
894.022,6,0,-2,3
894.022,7,2,0,2
894.023,8,8,5,4
894.024,8,10,8,4
894.024,4,7,6,2
894.025,0,4,3,0
894.025,-2,0,1,-2
894.026,-6,-2,1,-2
894.026,-6,-1,4,1
894.027,-2,1,8,6
894.028,3,6,8,9
894.028,10,8,4,5
894.029,8,7,1,2
894.029,7,5,-1,0
894.03,8,7,0,-1
894.031,1,0,-3,-1
894.031,2,-1,-5,0
894.032,6,2,-4,-3
894.032,3,6,2,0
894.033,2,5,5,1
894.033,0,4,4,0
894.034,1,6,5,0
894.034,2,10,8,0
894.035,0,5,5,0
894.036,0,2,2,0
894.036,0,1,1,0
894.037,0,0,0,0
894.037,0,0,0,1
894.038,1,3,2,3
894.039,2,0,0,4
894.039,3,-1,-1,4
894.04,3,-3,-2,3
894.04,2,-4,-3,5
894.041,5,-1,0,9
894.041,9,3,5,12
894.042,13,8,8,13
894.043,14,10,5,7
894.043,11,9,5,4
894.044,5,6,3,3
894.044,4,5,3,2
894.045,3,4,2,0
894.045,1,2,0,-2
894.046,0,0,-1,-3
894.047,-5,-4,-2,-1
894.047,-1,-1,1,3
894.048,5,7,8,5
894.048,4,7,7,4
894.049,3,2,2,1
894.049,1,0,0,1
894.05,1,1,1,3
894.051,4,0,-1,1
894.051,0,-6,-6,0
894.052,2,1,2,4
894.052,8,11,11,7
894.053,8,13,12,5
894.053,4,8,8,1
894.054,0,5,5,0
894.055,0,5,3,0
894.055,3,7,1,-3
894.056,0,3,-1,-5
894.056,-2,0,-1,-4
894.057,-1,1,0,-2
894.057,0,2,1,0
894.058,-1,-1,-1,0
894.059,-3,-7,-6,0
894.059,0,-7,-5,5
894.06,6,-4,-1,9
894.06,10,1,1,10
894.061,10,3,5,12
894.062,9,3,6,12
894.062,11,5,7,11
894.063,10,9,11,9
894.063,8,10,12,7
894.064,5,7,7,3
894.064,0,1,2,3
894.065,4,0,-3,5
894.066,16,9,-4,-1
894.066,10,9,-4,-7
894.067,-1,0,-5,-7
894.067,-3,0,0,-3
894.068,-2,1,1,-1
894.068,0,2,2,-1
894.069,-1,1,1,0
894.07,0,2,2,3
894.07,3,3,3,3
894.071,3,2,1,2
894.071,2,0,0,3
894.072,3,1,2,4
894.073,7,10,9,7
894.073,8,11,10,6
894.074,6,8,6,1
894.074,2,4,3,0
894.075,-1,1,0,-2
894.075,-2,0,0,-2
894.076,-1,0,0,-1
894.076,-1,0,0,0
894.077,-1,-1,0,-1
894.078,-2,-2,1,3
894.078,0,-2,1,5
894.079,3,-1,0,7
894.079,6,0,0,8
894.08,8,2,1,9
894.08,10,2,0,10
894.081,16,6,0,7
894.082,13,7,1,6
894.082,11,6,2,4
894.083,8,9,4,3
894.083,6,9,6,1
894.084,1,4,4,0
894.084,-3,0,2,-1
894.085,-5,0,3,0
894.086,-5,-1,2,0
894.086,-5,-2,1,0
894.087,-3,-3,2,2
894.087,-1,1,6,7
894.088,6,6,8,12
894.089,18,15,7,7
894.089,13,9,0,0
894.09,3,0,-4,-2
894.09,1,0,-4,-2
894.091,1,0,-3,-2
894.091,1,0,-1,-1
894.092,1,4,3,2
894.093,6,12,10,3
894.093,4,11,10,0
894.094,-2,0,1,-3
894.094,-4,0,2,0
894.095,0,2,2,1
894.095,1,3,3,2
894.096,3,1,0,2
894.097,8,4,-2,2
894.097,11,10,0,0
894.098,6,7,2,0
894.098,0,-2,-4,-3
894.099,-4,-7,-5,-1
894.099,-2,-7,-3,2
894.1,1,-3,0,7
894.101,5,0,2,10
894.101,9,2,5,13
894.102,12,4,6,12
894.102,12,4,4,9
894.103,11,8,6,7
894.103,8,8,7,4
894.104,4,7,7,3
894.105,4,6,5,2
894.105,2,4,2,0
894.106,0,3,2,-1
894.106,0,4,2,0
894.107,0,4,2,0
894.107,1,2,0,0
894.108,1,2,0,-1
894.109,0,1,-1,-2
894.109,0,-1,-1,0
894.11,1,0,0,3
894.11,5,3,1,3
894.111,7,4,0,1
894.111,4,3,1,2
894.112,4,5,3,3
894.113,6,9,8,4
894.113,4,8,7,1
894.114,0,5,4,0
894.114,0,5,4,0
894.115,-1,3,3,-2
894.115,-2,1,1,-1
894.116,-1,0,0,-1
894.117,-1,0,0,0
894.117,0,0,0,0
894.118,1,0,0,2
894.118,1,-3,-1,3
894.12,0,-8,-5,5
894.12,4,-6,-4,9
894.12,12,3,3,11
894.121,13,6,4,10
894.121,10,4,5,10
894.122,10,5,5,10
894.123,10,5,4,7
894.123,7,5,5,5
894.124,5,5,5,3
894.124,2,6,7,3
894.125,3,6,6,5
894.125,9,10,2,0
894.126,6,7,0,-5
894.126,-2,0,-4,-6
894.127,-2,0,-2,-4
894.128,-2,0,-1,-3
894.128,-1,0,0,-2
894.129,-1,0,1,0
894.129,-1,-1,0,2
894.13,1,0,1,6
894.13,6,2,3,7
894.131,6,2,3,6
894.132,7,4,3,7
894.132,10,10,8,7
894.133,14,16,10,4
894.133,7,10,5,-1
894.134,0,4,2,-5
894.134,-6,1,2,-5
894.135,-8,-2,0,-3
894.136,-5,-1,0,-1
894.136,-2,-1,0,0
894.137,0,0,-1,0
894.137,2,1,0,2
894.138,3,2,2,5
894.138,5,2,1,5
894.139,6,1,0,8
894.14,13,7,1,6
894.14,11,5,0,4
894.141,6,0,-3,2
894.141,4,-1,-1,4
894.142,6,0,1,8
894.142,9,4,3,7
894.143,8,5,6,8
894.144,7,5,4,4
894.144,5,5,5,3
894.145,3,8,8,2
894.145,2,8,7,1
894.146,0,4,4,0
894.146,-1,0,-1,-2
894.147,-1,1,0,-1
894.148,0,1,0,-1
894.148,1,2,0,0
894.149,2,2,0,0
894.149,3,2,0,0
894.15,2,1,0,0
894.151,1,0,0,1
894.151,2,0,1,1
894.152,1,2,5,6
894.152,5,9,12,9
894.153,7,9,11,9
894.153,10,11,8,4
894.154,7,11,7,0
894.155,2,7,4,-2
894.155,-1,2,0,-5
894.156,-4,-1,-3,-6
894.156,-5,-3,-4,-5
894.157,-2,-2,-2,-1
894.157,0,0,0,1
894.158,2,0,0,3
894.159,2,0,0,3
894.159,1,-3,-1,4
894.16,3,-1,0,8
894.16,8,2,3,10
894.161,10,5,5,10
894.161,10,6,6,10
894.162,12,6,2,6
894.163,10,4,0,5
894.163,10,4,0,3
894.164,5,2,0,2
894.164,3,1,0,1
894.165,3,1,0,2
894.166,3,3,3,2
894.166,4,6,5,3
894.167,4,7,7,4
894.167,4,7,6,3
894.168,6,8,3,0
894.168,3,6,0,-5
894.169,0,4,0,-6
894.17,-3,2,0,-7
894.17,-8,-3,-1,-5
894.171,-10,-9,-5,0
894.171,0,-2,0,5
894.172,7,5,6,9
894.172,11,12,10,9
894.173,10,11,9,7
894.174,6,6,6,3
894.174,2,5,4,0
894.175,-1,3,3,-2
894.175,-3,1,2,-2
894.176,-3,2,4,1
894.176,1,4,3,1
894.177,2,2,0,0
894.178,2,1,-1,-1
894.178,0,-2,-4,0
894.179,3,0,-2,2
894.179,4,-2,-2,3
894.18,4,-3,-2,5
894.18,5,-4,-3,8
894.181,8,-3,-1,11
894.182,15,6,5,13
894.182,14,9,8,10
894.183,10,8,9,8
894.183,5,7,8,6
894.184,4,7,8,4
894.185,1,1,3,2
894.185,-1,-2,0,0
894.186,-1,0,0,1
894.186,4,6,4,5
894.187,13,15,5,2
894.187,13,16,2,-3
894.188,4,6,-3,-9
894.188,-4,-2,-6,-9
894.189,-5,-3,-5,-8
894.19,-8,-8,-7,-5
894.19,-3,-4,-2,2
894.191,3,2,4,8
894.191,6,4,7,9
894.192,6,6,9,8
894.193,7,10,11,8
894.193,7,9,9,6
894.194,7,9,7,3
894.194,7,12,8,1
894.195,1,6,2,-4
894.195,-5,-1,-3,-8
894.196,-7,-4,-4,-4
894.196,-4,-2,-1,0
894.197,1,0,0,1
894.198,3,1,0,0
894.198,0,-2,0,2
894.199,1,-2,0,5
894.199,6,0,0,7
894.2,8,1,0,9
894.201,9,1,0,8
894.201,10,2,1,9
894.202,9,3,3,11
894.202,12,6,5,10
894.203,13,10,7,6
894.203,8,7,4,3
894.204,4,5,3,0
894.205,1,4,3,0
894.205,1,4,3,0
894.206,0,3,2,-1
894.206,0,2,0,-2
894.207,0,2,1,0
894.207,-1,1,1,0
894.208,-1,0,0,0
894.209,-1,-1,0,1
894.209,0,0,2,3
894.21,2,1,3,8
894.21,9,5,2,7
894.211,11,6,1,3
894.211,6,2,0,1
894.212,4,6,5,3
894.213,6,12,10,3
894.213,5,11,7,0
894.214,0,4,2,-2
894.214,-1,3,1,-3
894.215,-3,0,0,-4
894.215,-5,-2,-1,-4
894.216,-3,-1,0,-1
894.217,0,0,2,1
894.217,0,1,3,3
894.218,3,3,2,4
894.218,3,0,0,2
894.219,0,-3,-1,6
894.219,6,-1,-1,9
894.22,11,1,0,8
894.221,8,0,0,9
894.221,9,2,2,11
894.222,14,7,3,11
894.222,18,13,5,7
894.223,14,13,7,4
894.224,6,7,2,0
894.224,3,6,0,-2
894.225,1,5,0,-5
894.225,-1,2,0,-5
894.226,-3,2,0,-4
894.226,-2,1,1,-2
894.227,-1,2,2,0
894.228,-1,2,3,0
894.228,0,4,4,1
894.229,1,2,2,2
894.229,0,-3,-2,2
894.23,2,-1,0,5
894.23,4,0,0,5
894.231,3,0,1,5
894.232,3,-1,2,8
894.232,8,4,6,9
894.233,9,8,9,6
894.233,5,9,10,3
894.234,1,8,10,1
894.234,0,6,8,1
894.235,-1,2,4,0
894.236,-1,1,2,0
894.236,0,0,0,1
894.237,5,6,0,0
894.237,6,6,0,-2
894.238,2,1,-2,-2
894.238,0,-3,-5,-2
894.239,-1,-6,-7,-1
894.24,0,-6,-6,2
894.24,4,-2,-2,9
894.241,12,4,2,11
894.241,15,7,3,10
894.242,11,4,3,8
894.242,9,4,3,7
894.243,9,10,8,7
894.244,7,9,8,5
894.244,7,10,8,4
894.245,3,7,5,0
894.245,0,5,4,0
894.246,1,3,0,-2
894.247,2,3,-2,-5
894.247,-2,0,-1,-4
894.248,-2,0,0,-2
894.248,-2,0,0,-1
894.249,-1,0,0,1
894.249,0,1,3,3
894.25,3,3,4,5
894.251,3,0,1,4
894.251,3,0,0,3
894.252,3,0,3,6
894.252,7,9,11,9
894.253,9,13,14,7
894.253,6,9,8,3
894.254,2,6,5,0
894.255,-1,0,-2,-4
894.255,-3,-3,-5,-4
894.256,-1,0,-1,0
894.256,3,3,0,0
894.257,3,4,0,0
894.257,3,4,2,1
894.258,2,2,0,1
894.259,2,0,0,0
894.259,1,0,0,2
894.26,1,-3,-2,3
894.26,3,-3,-1,6
894.261,5,-1,0,8
894.261,7,-1,0,9
894.262,10,3,3,11
894.263,14,10,9,14
894.263,19,18,11,7
894.264,10,10,4,0
894.264,0,3,2,-2
894.265,-2,0,1,0
894.265,0,1,1,-1
894.266,0,3,1,0
894.267,0,2,2,0
894.267,0,3,2,1
894.268,1,3,1,1
894.268,0,0,0,0
894.269,0,0,0,0
894.269,1,0,1,3
894.27,4,3,3,4
894.271,5,6,4,6
894.271,6,4,1,3
894.272,5,3,0,2
894.272,7,9,6,3
894.273,5,9,6,1
894.273,4,8,4,0
894.274,1,6,3,-2
894.275,-2,2,1,-4
894.275,-4,0,0,-4
894.276,-5,-2,0,-1
894.276,-3,-2,0,2
894.277,3,2,2,3
894.278,3,4,4,3
894.278,2,0,1,3
894.279,1,-2,0,4
894.279,3,-2,-1,7
894.28,6,-1,-1,6
894.28,7,0,0,8
894.281,8,1,1,9
894.282,10,4,3,10
894.282,11,5,5,9
894.283,11,9,8,7
894.283,8,9,8,5
894.284,4,5,5,2
894.284,2,4,4,1
894.285,0,3,3,0
894.286,0,1,0,0
894.286,3,3,-1,-1
894.287,3,3,-2,-2
894.287,0,1,-1,-1
894.288,0,0,0,-2
894.288,0,0,0,0
894.289,1,2,1,2
894.289,4,5,4,4
894.29,6,5,4,4
894.291,4,3,3,3
894.291,2,4,4,3
894.292,2,4,6,4
894.292,7,11,7,3
894.293,6,10,6,0
894.294,0,3,2,-2
894.294,-2,2,2,-2
894.295,-3,0,0,-3
894.295,-3,-1,0,-2
894.296,-1,0,0,0
894.296,1,0,0,2
894.297,3,2,1,2
894.298,4,4,3,2
894.298,4,3,2,3
894.299,3,1,0,4
894.299,4,0,0,4
894.3,3,0,0,4
894.3,2,0,2,6
894.301,2,-2,0,7
894.302,2,-5,0,10
894.302,5,-5,-1,13
894.303,12,0,0,16
894.303,22,11,5,14
894.304,24,20,9,9
894.304,19,18,7,3
894.305,10,13,3,-2
894.306,0,5,0,-9
894.306,-6,0,-3,-10
894.307,-6,0,-3,-11
894.307,-9,-4,-4,-8
894.308,-8,-6,-4,-1
894.308,-2,-4,-2,2
894.309,3,-2,-4,2
894.31,6,1,0,5
894.31,9,7,7,9
894.311,10,9,9,10
894.311,9,8,7,6
894.312,6,8,7,3
894.312,3,12,12,0
894.313,0,10,11,1
894.314,-1,6,7,0
894.314,-1,4,4,-3
894.315,-5,0,0,-6
894.315,-7,-1,0,-6
894.316,-6,-1,1,-1
894.317,-3,0,2,5
894.317,6,3,1,3
894.318,4,-2,-5,-1
894.318,-3,-13,-12,0
894.319,4,-2,-1,8
894.319,11,6,6,11
894.32,11,6,5,10
894.321,9,2,2,9
894.321,9,2,2,8
894.322,10,4,2,8
894.322,11,7,4,7
894.323,11,10,6,6
894.323,9,8,5,2
894.324,4,5,2,0
894.325,1,3,0,-1
894.325,0,1,0,-2
894.326,-2,0,0,-2
894.326,-2,0,1,0
894.327,0,1,1,0
894.327,0,2,2,1
894.328,0,2,4,3
894.329,1,2,5,5
894.329,4,3,4,4
894.33,6,5,3,3
894.33,5,3,0,0
894.331,0,-3,-4,-1
894.331,-2,-6,-4,1
894.332,4,3,3,6
894.333,9,11,10,7
894.333,9,14,12,4
894.334,3,9,7,0
894.334,0,6,5,-1
894.335,-2,2,2,-3
894.335,-5,-1,-1,-3
894.336,-3,-2,-3,-2
894.337,0,0,-1,0
894.337,1,1,0,1
894.338,2,0,0,4
894.338,6,1,0,6
894.339,11,4,-1,2
894.339,5,0,-3,2
894.34,4,-1,-1,6
894.341,6,0,0,7
894.341,7,0,0,7
894.342,5,0,2,7
894.342,6,3,5,10
894.343,15,14,10,10
894.344,13,12,8,4
894.344,5,7,5,2
894.345,0,2,2,0
894.345,-1,0,-1,0
894.346,6,6,0,0
894.346,7,9,2,-2
894.347,0,4,0,-4
894.348,-2,0,-2,-5
894.348,-4,-2,-3,-4
894.349,-4,-3,0,0
894.349,0,1,2,5
894.35,6,6,6,7
894.35,8,6,4,6
894.351,9,6,2,2
894.352,5,5,1,0
894.352,1,5,5,1
894.353,0,5,7,2
894.353,1,6,7,0
894.354,1,7,8,0
894.354,-2,2,4,-1
894.355,-3,0,2,-1
894.356,-3,0,0,0
894.356,-2,0,1,2
894.357,2,2,1,1
894.357,2,1,0,2
894.358,2,0,0,3
894.358,5,0,0,4
894.359,6,-1,-1,6
894.36,7,-1,-2,7
894.36,9,0,-1,8
894.361,12,3,0,8
894.361,13,5,1,8
894.362,13,7,3,6
894.362,10,8,5,4
894.363,8,9,5,2
894.364,4,5,2,0
894.364,1,3,2,-1
894.365,0,2,1,-1
894.365,-1,1,0,-1
894.366,0,2,1,0
894.367,0,4,4,0
894.367,0,3,4,0
894.368,1,3,3,2
894.368,2,2,2,1
894.369,1,1,2,1
894.369,1,1,2,2
894.37,2,2,2,3
894.371,2,2,2,3
894.371,3,1,1,3
894.372,3,2,3,4
894.372,7,10,8,5
894.373,7,10,9,3
894.373,4,7,6,0
894.374,1,7,5,-1
894.375,-1,3,1,-3
894.375,-3,1,0,-4
894.376,-4,0,-1,-3
894.376,-3,-3,-2,-2
894.377,-1,-3,-2,0
894.377,1,-1,-1,3
894.378,4,2,2,5
894.379,5,1,1,7
894.379,6,0,0,8
894.38,7,-3,-3,8
894.38,8,-1,-1,9
894.381,10,0,0,9
894.381,11,3,4,11
894.382,12,6,4,10
894.383,12,9,7,9
894.383,9,8,6,4
894.384,5,6,4,1
894.384,3,6,3,0
894.385,1,4,3,-1
894.385,0,3,2,-1
894.386,1,2,0,-2
894.387,0,3,-1,-2
894.387,1,3,0,-3
894.388,0,3,1,0
894.388,2,4,2,0
894.389,2,3,1,0
894.39,0,0,-1,-1
894.39,-1,-2,-1,0
894.391,0,1,3,4
894.391,2,3,6,6
894.392,4,4,7,6
894.392,6,9,10,6
894.393,5,9,9,3
894.393,2,6,6,1
894.394,2,7,7,0
894.395,0,1,0,-2
894.395,-1,0,0,-3
894.396,-1,1,0,-1
894.396,-1,0,0,0
894.397,0,-1,0,2
894.398,2,0,0,3
894.398,3,0,-1,3
894.399,4,0,0,5
894.399,5,0,0,7
894.4,7,-1,-2,8
894.4,12,3,0,6
894.401,12,7,3,7
894.401,11,7,3,7
894.402,9,5,1,5
894.403,9,5,1,3
894.403,8,6,2,1
894.404,4,5,2,0
894.404,2,5,3,0
894.405,1,6,5,0
894.406,0,3,2,-1
894.406,-3,-1,0,-1
894.407,-4,-1,0,0
894.407,-2,0,2,2
894.408,1,1,4,4
894.408,4,4,4,5
894.409,4,1,1,3
894.41,3,1,3,4
894.41,3,3,4,4
894.411,4,3,2,2
894.411,2,1,2,3
894.412,4,5,4,4
894.412,6,11,9,3
894.413,4,9,7,0
894.414,1,6,6,-1
894.414,-1,4,4,0
894.415,0,3,1,-3
894.415,-1,0,-1,-6
894.416,-9,-9,-7,-5
894.417,-8,-11,-6,0
894.417,0,-5,0,7
894.418,9,7,8,15
894.418,18,13,7,15
894.419,26,17,2,8
894.419,20,10,-4,0
894.42,8,1,-7,-4
894.421,0,-4,-10,-5
894.421,-1,-5,-7,-2
894.422,0,0,0,1
894.422,3,3,5,6
894.423,6,7,9,5
894.423,3,5,7,5
894.424,2,3,6,4
894.425,1,2,5,4
894.425,3,5,6,5
894.426,6,9,7,4
894.426,3,7,4,1
894.427,1,2,2,0
894.427,0,0,0,0
894.428,0,1,2,1
894.429,0,0,1,1
894.429,0,-2,0,1
894.43,-1,-3,0,2
894.43,1,-2,0,5
894.431,4,4,6,8
894.431,7,6,6,7
894.432,6,6,6,6
894.433,9,11,6,4
894.433,9,11,5,0
894.434,3,8,4,-2
894.434,0,5,2,-3
894.435,-1,5,1,-7
894.435,-5,1,0,-6
894.436,-7,-3,-2,-4
894.437,-3,-1,-1,-1
894.437,-1,0,1,2
894.438,2,1,1,2
894.438,2,1,2,4
894.439,3,0,1,5
894.439,5,0,0,5
894.44,4,-3,-1,7
894.441,7,-2,-1,9
894.441,11,2,2,12
894.442,15,7,6,13
894.442,15,9,6,9
894.443,12,10,6,4
894.443,7,8,5,2
894.444,4,7,3,0
894.445,0,3,1,-2
894.445,-2,-1,-2,-2
894.446,-3,-2,-2,-1
894.446,-1,0,0,0
894.447,2,2,1,3
894.448,4,5,3,3
894.448,3,3,2,3
894.449,3,4,3,1
894.449,0,2,3,1
894.45,0,2,4,3
894.45,1,0,2,4
894.451,2,0,1,3
894.451,3,1,0,1
894.452,3,6,6,3
894.453,2,7,9,4
894.453,2,6,7,4
894.454,6,9,6,4
894.454,10,12,3,-1
894.455,2,4,-1,-6
894.456,-3,0,-3,-7
894.456,-5,-2,-4,-6
894.457,-4,-3,-2,-3
894.457,-2,-2,-1,0
894.458,1,0,0,4
894.458,5,2,1,6
894.459,7,4,2,6
894.46,7,2,1,6
894.46,6,0,0,6
894.461,6,0,0,8
894.461,11,3,3,9
894.462,11,5,4,8
894.462,9,6,5,7
894.463,7,6,4,5
894.464,5,4,4,4
894.464,4,5,4,3
894.465,4,7,5,1
894.465,2,4,2,0
894.466,4,6,1,0
894.466,2,4,0,-2
894.467,0,1,0,-2
894.468,0,1,-1,-2
894.468,0,0,-1,-2
894.469,-1,0,0,0
894.469,0,0,0,2
894.47,2,0,0,2
894.47,2,1,2,3
894.471,1,1,4,4
894.472,0,1,5,6
894.472,5,8,11,9
894.473,7,11,13,6
894.473,3,6,7,2
894.474,1,5,5,1
894.474,1,3,1,2
894.475,6,6,0,-1
894.476,5,4,-2,-4
894.476,0,-1,-5,-5
894.477,-2,-1,-3,-3
894.477,-1,-3,-3,0
894.478,0,-5,-4,3
894.478,8,3,0,4
894.479,8,5,2,5
894.48,5,1,0,5
894.48,4,0,0,7
894.481,6,0,1,7
894.481,7,4,3,8
894.482,9,8,8,10
894.483,12,13,11,8
894.483,9,10,7,4
894.484,3,4,2,0
894.484,0,1,0,0
894.485,0,1,1,1
894.485,4,4,1,0
894.486,3,3,1,-1
894.487,0,2,1,-1
894.487,-2,0,0,-2
894.488,-2,0,0,0
894.488,0,1,2,4
894.489,4,4,4,3
894.489,4,4,3,3
894.49,3,2,1,2
894.491,2,0,0,2
894.491,3,2,1,4
894.492,6,6,6,5
894.492,8,12,10,5
894.493,6,10,8,1
894.493,2,6,4,-1
894.494,-1,4,3,-2
894.495,-3,0,0,-3
894.495,-3,-1,-1,-3
894.496,-3,-2,-2,-1
894.496,-1,0,0,1
894.497,2,2,1,3
894.497,4,3,2,3
894.498,3,0,0,3
894.499,4,0,0,4
894.499,5,0,-1,4
894.5,6,0,0,7
894.5,8,0,-2,6
894.501,9,2,1,9
894.501,12,5,4,9
894.502,10,5,5,8
894.503,8,6,4,5
894.503,5,4,3,3
894.504,4,5,4,1
894.504,3,7,5,1
894.505,2,7,6,0
894.505,0,6,4,-1
894.506,0,5,4,-1
894.507,-3,0,1,-3
894.507,-7,-7,-4,-1
894.508,-3,-6,-4,2
894.508,2,-1,0,7
894.509,8,3,2,8
894.51,11,6,3,6
894.51,8,7,4,5
894.511,6,5,4,3
894.511,6,7,4,1
894.512,4,6,3,0
894.512,3,7,4,0
894.513,2,6,3,0
894.513,1,5,2,-3
894.514,-3,3,3,-3
894.515,-5,-3,-2,-2
894.515,0,3,3,1
894.516,3,8,5,1
894.516,3,6,2,0
894.517,-1,0,0,-2
894.518,-2,-3,-1,1
894.518,0,-4,-4,2
894.519,3,-2,-2,4
894.519,6,0,0,7
894.52,8,0,0,11
894.52,13,2,-1,11
894.521,17,6,0,7
894.522,11,4,0,6
894.522,8,4,2,6
894.523,7,7,6,6
894.523,5,6,6,4
894.524,5,8,6,2
894.524,3,9,7,0
894.525,-1,3,4,-1
894.526,-5,-2,0,-2
894.526,-5,-4,0,0
894.527,0,0,2,1
894.527,0,1,3,3
894.528,2,1,2,5
894.528,7,4,2,5
894.529,8,5,2,2
894.53,5,5,1,0
894.53,1,1,0,0
894.531,2,1,1,2
894.531,3,2,2,3
894.532,5,7,5,3
894.532,6,10,7,3
894.533,7,12,8,3
894.534,9,14,6,-2
894.534,1,7,1,-8
894.535,-7,0,-3,-9
894.535,-8,-3,-3,-6
894.536,-3,-2,-4,-4
894.536,-2,0,0,0
894.537,0,1,3,3
894.538,0,0,2,5
894.538,2,-5,-1,5
894.539,5,0,1,8
894.539,10,5,5,11
894.54,10,5,4,10
894.541,8,1,0,7
894.541,7,0,0,6
894.542,8,1,0,5
894.542,8,2,1,6
894.543,8,6,5,6
894.543,6,5,6,5
894.544,5,5,4,3
894.545,5,6,5,3
894.545,4,6,4,1
894.546,3,6,3,0
894.546,0,2,0,-1
894.547,-1,-2,-1,-2
894.547,0,0,0,0
894.548,0,1,1,0
894.549,0,2,4,2
894.549,2,3,5,4
894.55,2,2,3,4
894.55,4,2,0,2
894.551,2,0,0,1
894.551,4,3,2,2
894.552,6,10,8,4
894.553,6,11,8,1
894.553,2,6,4,-1
894.554,-1,3,3,-2
894.554,-4,-1,0,-2
894.555,-3,-3,-1,0
894.555,0,0,1,2
894.556,2,2,0,1
894.557,2,1,1,3
894.557,3,3,3,3
894.558,3,1,2,4
894.558,3,0,0,5
894.559,4,-1,-2,3
894.559,4,-1,-2,4
894.56,7,1,0,6
894.561,8,2,2,9
894.561,10,3,2,8
894.562,9,1,0,6
894.562,10,6,4,6
894.563,10,11,8,5
894.563,7,9,6,4
894.564,6,8,4,0
894.565,4,5,2,-1
894.565,1,4,0,-4
894.566,-1,1,-1,-3
894.566,-2,0,0,-2
894.567,-1,0,0,-1
894.567,0,1,2,0
894.568,0,2,2,0
894.569,0,1,2,1
894.569,3,3,3,3
894.57,4,3,3,4
894.57,4,2,1,3
894.571,5,4,3,3
894.572,4,4,4,3
894.572,4,7,7,3
894.573,4,8,8,2
894.573,1,7,7,0
894.574,0,6,7,-1
894.574,-3,0,1,-3
894.575,-3,1,1,-2
894.576,-5,-2,0,0
894.576,-2,-3,0,2
894.577,2,0,0,3
894.577,4,0,0,4
894.578,4,0,-1,5
894.578,5,-1,0,6
894.579,7,-1,-1,10
894.58,16,4,-1,7
894.58,14,5,-1,4
894.581,9,3,0,5
894.581,8,3,0,5
894.582,8,4,1,5
894.582,9,6,2,4
894.583,8,9,4,2
894.584,5,7,4,0
894.584,3,5,4,0
894.585,2,5,3,0
894.585,0,3,4,0
894.586,-1,3,3,0
894.586,-2,1,2,0
894.587,0,0,2,0
894.588,-1,1,2,0
894.588,0,1,2,0
894.589,0,0,1,0
894.589,1,1,3,2
894.59,0,1,2,4
894.59,3,2,3,4
894.591,3,1,2,3
894.592,3,4,4,3
894.592,5,8,8,5
894.593,7,10,8,4
894.593,4,6,3,1
894.594,5,8,3,0
894.594,7,8,0,-3
894.595,4,6,-2,-6
894.596,-1,0,-3,-6
894.596,-5,-3,-3,-4
894.597,-5,-5,-2,-1
894.597,-2,-2,0,4
894.598,6,4,3,8
894.598,11,5,3,6
894.599,7,2,1,6
894.6,6,0,-1,5
894.6,5,-2,-3,4
894.601,5,0,0,6
894.601,7,2,3,8
894.602,8,2,3,9
894.603,9,7,8,9
894.603,8,9,8,7
894.604,6,7,7,4
894.604,4,9,8,3
894.605,3,7,5,0
894.605,0,0,0,-2
894.606,-3,-3,-4,-3
894.607,-2,-1,-1,-1
894.607,2,4,2,2
894.608,3,5,3,2
894.608,2,2,1,2
894.609,0,-3,-3,1
894.609,2,-1,-1,2
894.61,5,5,4,5
894.611,5,5,6,5
894.611,6,5,5,5
894.612,5,7,5,3
894.612,4,7,5,1
894.613,0,4,3,0
894.613,0,3,2,0
894.614,0,4,4,0
894.615,0,2,1,-2
894.615,-1,0,0,-2
894.616,-1,0,0,-1
894.616,0,0,0,1
894.617,3,2,1,3
894.617,5,3,2,2
894.618,3,-1,-1,1
894.619,2,-1,-1,3
894.619,3,-1,0,6
894.62,7,5,5,8
894.62,8,6,7,7
894.621,4,0,1,5
894.621,2,-5,-2,5
894.622,5,-1,0,9
894.623,15,10,6,9
894.623,16,16,10,8
894.624,11,11,5,2
894.624,5,4,0,-2
894.625,0,2,-1,-3
894.625,-1,2,1,-3
894.626,-2,1,0,-2
894.627,-2,1,0,0
894.627,0,0,1,0
894.628,0,1,0,0
894.628,0,1,1,0
894.629,0,2,2,2
894.63,3,4,4,5
894.63,5,4,3,4
894.631,3,1,1,2
894.631,4,1,1,3
894.632,5,6,4,4
894.632,7,9,8,5
894.633,6,9,7,3
894.633,3,7,5,0
894.634,0,3,1,-3
894.635,-3,0,0,-3
894.635,-3,0,0,-2
894.636,-3,0,2,0
894.636,0,1,1,1
894.637,1,0,1,1
894.638,2,0,0,1
894.638,3,0,0,5
894.639,6,2,1,6
894.639,6,0,0,5
894.64,4,-2,-1,6
894.64,3,-3,0,8
894.641,5,0,2,10
894.642,9,4,6,12
894.642,13,8,8,11
894.643,12,9,7,8
894.643,14,11,4,5
894.644,16,13,1,0
894.644,9,9,-2,-5
894.645,0,2,-4,-8
894.646,-5,-2,-4,-7
894.646,-5,-3,-3,-4
894.647,-2,0,0,-1
894.647,0,3,3,1
894.648,1,3,5,2
894.649,0,0,3,2
894.649,0,1,3,3
894.65,2,2,3,4
894.65,3,2,3,5
894.651,5,3,3,5
894.651,7,4,3,6
894.652,8,9,7,5
894.653,8,10,8,3
894.653,4,8,5,0
894.654,1,5,3,-1
894.654,-2,0,0,-4
894.655,-4,0,0,-2
894.655,-3,0,0,-3
894.656,-4,0,1,0
894.657,-1,1,3,1
894.657,0,3,6,3
894.658,1,3,4,3
894.658,0,-3,-2,2
894.659,3,-4,-4,5
894.659,7,0,-1,7
894.66,9,0,0,8
894.66,9,0,0,10
894.661,11,1,-1,8
894.662,13,2,-1,8
894.662,13,8,4,10
894.663,18,16,10,9
894.663,14,13,5,1
894.664,5,7,2,-3
894.664,-1,3,2,-4
894.665,-4,0,0,-4
894.666,-4,0,0,-2
894.666,-2,0,0,-1
894.667,0,2,1,0
894.667,1,3,2,1
894.668,2,3,2,1
894.669,1,2,1,0
894.669,1,0,1,1
894.67,2,1,2,3
894.67,3,1,2,4
894.671,3,0,0,4
894.671,6,5,4,6
894.672,9,13,11,7
894.673,7,11,9,3
894.673,5,9,7,0
894.674,2,8,5,-4
894.674,-6,2,1,-6
894.675,-10,-5,-3,-6
894.675,-7,-6,-4,-2
894.676,-1,-1,0,2
894.677,3,1,1,4
894.677,5,3,2,5
894.678,5,0,0,5
894.678,5,0,0,7
894.679,7,0,-1,6
894.68,7,0,0,7
894.68,8,1,0,6
894.681,8,1,1,8
894.681,10,4,3,9
894.682,10,3,2,7
894.682,10,6,5,6
894.683,8,6,4,4
894.683,5,5,4,2
894.684,3,4,3,1
894.685,0,3,2,0
894.685,0,3,3,0
894.686,1,4,3,0
894.686,2,5,3,0
894.687,0,4,1,-1
894.688,0,3,3,-1
894.688,-2,3,3,-2
894.689,-3,1,2,-1
894.689,-3,0,3,1
894.69,-3,-2,0,2
894.69,0,-2,0,4
894.691,0,-4,-1,5
894.692,5,1,3,9
894.692,12,10,9,13
894.693,18,18,10,11
894.693,22,23,11,2
894.694,12,19,7,-7
894.694,-5,0,-3,-12
894.695,-13,-10,-11,-12
894.696,-10,-9,-8,-8
894.696,-4,-1,-1,-3
894.697,-1,0,0,1
894.697,2,2,3,5
894.698,4,0,1,5
894.698,6,2,1,5
894.699,5,0,0,5
894.7,5,0,0,7
894.7,7,2,3,9
894.701,11,5,4,10
894.701,10,4,4,8
894.702,7,2,2,6
894.702,7,4,4,6
894.703,8,8,7,6
894.704,7,9,7,4
894.704,4,5,4,0
894.705,0,2,0,-1
894.705,0,2,0,0
894.706,1,4,2,0
894.706,2,3,2,0
894.707,0,2,1,-1
894.708,-1,1,1,0
894.708,-1,0,1,1
894.709,0,0,1,3
894.709,2,0,1,3
894.71,2,0,0,3
894.711,3,0,0,3
894.711,4,2,2,4
894.712,7,7,6,6
894.712,9,12,10,5
894.713,6,10,8,1
894.713,0,6,6,-1
894.714,-1,5,4,-1
894.715,-3,0,0,-4
894.715,-4,-1,0,-2
894.716,-1,0,0,0
894.716,1,0,0,1
894.717,4,1,0,4
894.717,7,4,0,4
894.718,8,2,-3,0
894.719,5,1,-2,1
894.719,3,-1,-4,2
894.72,3,-3,-4,4
894.72,6,-1,-3,7
894.721,9,1,0,9
894.721,11,6,5,10
894.722,11,6,6,9
894.723,11,10,9,8
894.723,7,9,8,4
894.724,2,6,7,2
894.724,0,5,6,1
894.725,0,4,4,2
894.725,1,3,3,0
894.726,-1,0,0,-1
894.727,-1,0,0,0
894.727,0,1,0,0
894.728,6,6,1,1
894.728,7,7,0,-1
894.729,3,3,-1,-3
894.729,0,0,-2,-2
894.73,-2,-1,0,0
894.731,-2,-3,0,3
894.731,3,0,2,7
894.732,10,10,8,10
894.732,17,18,11,6
894.733,9,13,7,0
894.734,1,6,3,-3
894.734,-1,3,1,-4
894.735,-4,0,0,-5
894.735,-5,-2,-1,-4
894.736,-4,0,0,0
894.736,-1,0,1,1
894.737,2,1,1,2
894.738,1,0,0,2
894.738,0,-4,-2,3
894.739,2,-3,-1,7
894.739,7,0,1,10
894.74,11,4,3,11
894.74,11,3,1,9
894.741,10,3,1,10
894.742,12,4,2,8
894.742,11,6,4,7
894.743,10,9,5,4
894.743,6,6,3,2
894.744,4,6,3,0
894.744,1,4,1,-1
894.745,0,2,2,-2
894.746,-4,0,1,-2
894.746,-5,-1,2,0
894.747,-2,1,5,3
894.747,0,2,7,3
894.748,0,3,6,4
894.748,0,0,3,4
894.749,3,1,1,5
894.75,7,5,1,2
894.75,5,3,0,1
894.751,4,2,0,1
894.751,5,4,0,1
894.752,7,8,4,1
894.752,6,9,6,0
894.753,3,6,3,-1
894.754,0,5,3,-1
894.754,0,1,1,-2
894.755,-3,-2,-2,-2
894.755,-2,-2,-1,-1
894.756,0,0,2,2
894.756,0,0,1,2
894.757,2,1,0,1
894.758,0,0,0,3
894.758,2,0,0,5
894.759,6,3,4,9
894.759,11,6,3,10
894.76,15,7,0,5
894.76,11,2,-4,0
894.761,6,2,-1,2
894.762,5,2,1,3
894.762,4,5,3,4
894.763,5,5,6,6
894.763,3,2,3,3
894.764,3,1,1,3
894.764,4,6,6,3
894.765,4,8,7,2
894.766,1,5,4,1
894.766,0,0,1,1
894.767,2,2,2,2
894.767,1,1,0,0
894.768,0,-2,-3,0
894.768,0,-1,0,1
894.769,4,4,4,5
894.77,5,5,5,3
894.77,4,4,2,1
894.771,1,1,1,0
894.771,0,0,1,2
894.772,4,7,7,5
894.773,6,10,9,2
894.773,3,9,7,0
894.774,1,6,4,-1
894.774,-1,2,1,-2
894.775,-1,0,0,-1
894.775,0,1,-1,-1
894.776,2,3,-1,-3
894.777,-1,0,-1,-1
894.777,-1,0,1,1
894.778,0,0,1,3
894.778,0,-1,0,7
894.779,6,0,-1,9
894.779,12,4,0,7
894.78,11,2,-1,7
894.781,10,1,0,9
894.781,14,4,-2,6
894.782,11,3,-2,2
894.782,7,4,1,4
894.783,9,9,6,6
894.784,9,11,6,2
894.785,3,6,4,0
894.785,1,2,1,-1
894.785,0,2,1,0
894.786,0,3,2,-1
894.786,0,2,2,0
894.787,0,2,1,-1
894.787,-1,0,1,0
894.788,-1,0,1,2
894.789,0,2,3,3
894.789,2,1,3,4
894.79,3,1,3,5
894.79,4,2,2,4
894.791,4,4,5,5
894.791,7,9,8,5
894.792,7,12,10,3
894.793,5,10,8,0
894.793,0,3,1,-3
894.794,-1,5,4,-1
894.794,-1,3,0,-3
894.795,-4,-2,-3,-5
894.796,-6,-8,-8,-3
894.796,-1,-4,-3,2
894.797,4,4,4,4
894.797,6,6,6,5
894.798,3,0,2,5
894.798,3,0,0,6
894.799,4,-1,0,7
894.799,7,0,0,8
894.8,6,-1,0,7
894.801,7,1,1,8
894.801,10,4,4,10
894.802,10,5,4,8
894.802,10,7,5,5
894.803,7,7,5,4
894.804,6,7,4,1
894.804,3,5,3,0
894.805,2,4,2,0
894.805,0,2,1,-1
894.806,0,3,1,-2
894.806,-1,1,0,-1
894.807,0,2,0,-1
894.808,0,2,1,0
894.808,1,2,0,0
894.809,0,1,0,1
894.809,0,1,2,3
894.81,3,3,3,5
894.81,4,1,1,4
894.811,3,-1,-1,3
894.812,6,6,3,5
894.812,10,11,9,6
894.813,9,12,9,3
894.813,5,8,6,0
894.814,2,6,5,-2
894.815,-1,3,2,-4
894.815,-4,0,-1,-4
894.816,-3,0,-2,-3
894.816,-1,0,-1,-1
894.817,0,0,-1,0
894.817,1,0,-1,1
894.818,1,-1,-3,2
894.819,4,-1,-1,5
894.819,6,-1,-2,5
894.82,8,0,-1,6
894.82,7,0,0,8
894.821,8,0,1,10
894.821,11,5,6,12
894.822,12,7,7,11
894.823,10,9,9,8
894.823,7,7,7,5
894.824,3,5,5,3
894.824,3,6,5,2
894.825,3,6,3,0
894.825,0,2,0,-1
894.826,0,1,-1,-3
894.827,1,3,0,-3
894.827,0,2,0,-2
894.828,-1,0,1,-1
894.828,0,-1,0,0
894.829,0,0,0,1
894.829,0,0,0,3
894.83,2,1,1,5
894.831,5,2,2,6
894.831,6,5,5,6
894.832,8,12,11,7
894.832,7,14,12,4
894.833,3,11,10,0
894.833,-1,6,4,-2
894.834,-3,2,0,-4
894.835,-5,-1,-2,-5
894.835,-6,-4,-5,-3
894.836,-4,-6,-5,0
894.836,2,-1,-1,4
894.837,7,5,2,6
894.837,8,5,2,5
894.838,3,-1,-1,3
894.839,3,-2,0,5
894.839,5,0,0,7
894.84,7,1,2,8
894.84,8,1,2,9
894.841,9,3,1,11
894.841,16,7,2,10
894.842,20,12,1,3
894.843,12,11,3,0
894.843,2,4,1,-1
894.844,-2,-2,-1,-2
894.844,-3,-1,0,0
894.845,-2,2,6,0
894.845,-3,6,12,3
894.846,-5,2,9,5
894.847,0,1,6,7
894.847,8,6,3,4
894.848,8,6,-1,0
894.848,7,3,-5,-2
894.849,6,4,-3,-2
894.849,2,3,-1,-2
894.85,1,0,-2,-1
894.851,1,0,-3,-2
894.851,2,3,2,1
894.852,5,10,9,5
894.852,7,11,11,3
894.853,1,6,6,0
894.854,-1,3,4,0
894.854,0,4,4,0
894.855,-1,3,3,-1
894.855,-1,2,2,0
894.856,0,0,0,0
894.856,-1,-2,-1,0
894.857,0,-2,-1,1
894.858,0,-1,0,6
894.858,5,0,2,8
894.859,6,0,1,7
894.859,6,-1,0,6
894.86,6,1,1,8
894.86,7,1,3,9
894.861,8,4,4,9
894.862,9,5,3,8
894.862,7,3,3,6
894.863,7,5,4,6
894.863,7,6,4,5
894.864,9,7,3,2
894.864,6,6,2,0
894.865,4,6,3,-1
894.866,0,3,1,-3
894.866,0,2,1,-1
894.867,1,3,2,0
894.867,0,2,1,-2
894.868,0,1,0,-2
894.868,-1,1,1,-1
894.869,0,1,0,0
894.87,0,-1,0,2
894.87,2,0,0,4
894.871,6,4,3,5
894.871,7,6,5,5
894.872,5,6,5,5
894.872,5,4,3,2
894.873,4,5,5,2
894.874,4,10,7,2
894.874,1,7,5,0
894.875,0,4,2,-3
894.875,-2,1,0,-3
894.876,-3,0,0,-2
894.876,-2,0,-1,-1
894.877,-1,0,-1,1
894.878,2,0,-2,2
894.878,3,0,0,4
894.879,3,-1,0,5
894.879,5,-1,0,6
894.88,6,-2,-1,8
894.88,8,-1,-1,9
894.881,10,2,1,11
894.882,14,8,7,12
894.882,15,12,9,9
894.883,12,11,7,6
894.883,8,9,5,2
894.884,3,5,3,0
894.884,0,3,1,-2
894.885,-2,0,0,-3
894.886,-2,0,0,-2
894.886,-1,0,0,0
894.887,0,0,0,0
894.887,0,0,0,1
894.888,1,1,0,2
894.888,2,1,1,2
894.889,3,2,3,4
894.89,2,0,1,4
894.89,3,1,3,6
894.891,5,3,3,5
894.891,7,8,8,8
894.892,11,15,11,7
894.893,12,15,6,0
894.893,5,8,1,-6
894.894,-1,3,-1,-7
894.894,-5,-1,-3,-8
894.895,-6,-1,-3,-6
894.895,-5,-1,-1,-2
894.896,-4,-1,1,1
894.897,0,0,3,4
894.897,4,3,5,5
894.898,2,-1,0,3
894.898,0,-5,-2,5
894.899,3,-4,-1,8
894.899,6,0,2,10
894.9,9,0,2,10
894.901,9,2,4,12
894.901,15,8,4,13
894.902,20,14,5,8
894.902,15,14,6,3
894.903,5,6,3,0
894.903,-2,-3,-2,0
894.904,2,3,0,0
894.905,8,12,5,-1
894.905,5,14,6,-4
894.906,-2,5,1,-6
894.906,-6,-2,-3,-6
894.907,-6,-8,-9,-5
894.907,-3,-6,-6,0
894.908,1,0,0,3
894.909,4,3,4,6
894.909,5,5,6,7
894.91,6,5,7,6
894.91,3,2,4,3
894.911,0,0,4,7
894.911,6,8,9,9
894.912,10,12,9,9
894.913,13,13,7,2
894.913,5,7,1,-4
894.914,-2,2,-1,-6
894.914,-5,-1,0,-4
894.915,-3,-1,-1,-3
894.915,-3,-2,-1,-2
894.916,-1,0,0,0
894.917,0,1,3,2
894.917,1,1,2,3
894.918,1,-2,0,4
894.918,3,-1,0,6
894.919,5,0,2,7
894.919,7,2,3,9
894.92,9,3,4,9
894.921,12,6,4,10
894.921,14,8,2,6
894.922,11,5,0,2
894.922,8,6,2,0
894.923,4,5,2,1
894.924,4,5,2,1
894.924,3,4,0,-1
894.925,1,4,0,-2
894.925,0,3,1,-2
894.926,0,3,1,0
894.926,0,3,2,0
894.927,1,1,0,0
894.928,0,1,1,1
894.928,1,0,2,2
894.929,2,3,3,3
894.929,2,1,3,4
894.93,3,2,2,3
894.93,2,0,0,3
894.931,3,1,2,5
894.932,7,9,9,7
894.932,8,12,10,4
894.933,4,8,6,1
894.933,0,5,5,0
894.934,0,3,2,-1
894.935,-2,1,0,-4
894.935,-4,-2,-2,-4
894.936,-4,-3,-3,-1
894.936,0,0,0,0
894.937,2,4,3,1
894.937,0,1,2,2
894.938,0,-1,1,4
894.938,3,-3,-1,6
894.939,6,-1,-2,7
894.94,9,1,1,9
894.94,10,2,2,10
894.941,12,5,4,11
894.941,14,8,5,11
894.942,16,10,4,6
894.943,12,9,2,1
894.943,5,6,0,-1
894.944,2,4,1,-1
894.944,0,4,1,-1
894.945,0,2,2,-1
894.945,-1,1,1,-1
894.946,-2,0,0,-2
894.947,-1,1,1,-1
894.947,-2,0,2,3
894.948,1,1,3,3
894.948,3,3,4,3
894.949,3,4,4,3
894.949,2,2,3,3
894.95,2,2,4,5
894.951,3,0,1,4
894.951,4,0,0,3
894.952,6,7,6,6
894.952,8,11,8,3
894.953,5,8,6,1
894.953,2,7,5,0
894.954,0,3,2,-2
894.955,0,2,0,-5
894.955,-4,-1,-2,-4
894.956,-2,-1,-2,-1
894.956,0,0,0,0
894.957,1,1,0,2
894.957,2,0,-1,1
894.958,2,-2,-1,3
894.959,3,-2,-1,5
894.959,5,-1,0,8
894.96,8,0,1,10
894.96,9,2,1,10
894.961,10,3,3,11
894.961,11,5,4,10
894.962,12,9,7,8
894.963,12,11,7,6
894.963,9,10,5,3
894.964,6,6,1,-2
894.964,0,1,0,-4
894.965,-3,0,0,-4
894.966,-4,0,0,-3
894.966,-5,0,3,-1
894.967,-2,2,5,1
894.967,0,2,4,3
894.968,2,0,1,5
894.968,8,3,0,4
894.969,12,8,1,1
894.97,5,3,0,0
894.97,2,2,0,0
894.971,1,1,1,1
894.971,1,0,-1,1
894.972,3,5,4,3
894.972,6,11,10,4
894.973,4,10,9,3
894.974,2,7,6,0
894.974,-1,1,1,-3
894.975,-4,-1,-1,-4
894.975,-4,-2,-1,-2
894.976,-2,0,0,0
894.976,0,1,3,2
894.977,2,4,4,3
894.978,0,-2,0,4
894.978,2,-1,0,7
894.979,8,0,0,8
894.979,13,5,0,7
894.98,10,3,-1,5
894.98,7,0,0,6
894.981,8,2,2,7
894.982,7,2,2,6
894.982,7,6,6,6
894.983,5,6,7,5
894.983,4,6,7,3
894.984,2,6,6,2
894.984,1,6,5,1
894.985,1,3,1,1
894.986,4,2,-3,-1
894.986,5,4,-1,-2
894.987,2,4,0,-4
894.987,-1,1,0,-2
894.988,-2,0,0,-1
894.988,-1,0,1,1
894.989,-1,0,2,3
894.99,1,1,2,4
894.99,3,2,4,6
894.991,5,4,5,6
894.991,9,9,8,8
894.992,11,14,10,4
894.992,5,10,6,0
894.993,0,4,2,-3
894.994,-2,2,1,-3
894.994,-3,0,0,-3
894.995,-3,-1,-2,-2
894.995,-2,-1,-1,0
894.996,1,1,0,2
894.996,3,1,0,3
894.997,5,2,0,3
894.998,6,1,0,4
894.998,6,1,-1,3
894.999,4,0,0,4
894.999,4,0,0,6
895,3,-2,0,5
895,4,-3,0,9
895.001,9,2,3,9
895.002,8,4,5,9
895.002,10,9,9,10
895.003,9,11,10,7
895.003,7,8,7,4
895.004,4,6,5,1
895.005,1,5,3,0
895.005,1,4,0,-2
895.006,-1,0,-2,-4
895.006,-1,0,0,-2
895.007,0,1,0,0
895.007,0,0,0,0
895.008,1,1,0,0
895.009,1,2,0,2
895.009,3,2,1,4
895.01,4,2,2,4
895.01,4,2,2,4
895.011,6,5,4,4
895.011,6,9,7,4
895.012,5,9,7,2
895.013,3,7,5,0
895.013,0,5,4,-1
895.014,-2,2,2,-2
895.014,-4,0,0,-2
895.015,-1,0,0,-1
895.015,0,0,-1,0
895.016,0,1,0,0
895.017,0,1,1,2
895.017,2,2,2,5
895.018,6,2,0,4
895.018,7,1,-1,4
895.019,6,0,-1,4
895.019,5,0,0,5
895.02,5,-1,-1,6
895.021,7,1,1,9
895.021,9,5,5,10
895.022,10,5,4,8
895.022,9,7,6,7
895.023,8,6,4,4
895.023,6,8,4,2
895.024,3,5,3,0
895.025,1,3,2,0
895.025,0,1,2,0
895.026,0,1,1,-1
895.026,0,2,2,0
895.027,0,3,3,0
895.028,0,2,2,0
895.028,0,2,1,1
895.029,3,2,0,1
895.029,3,0,-2,0
895.03,2,0,-2,2
