Program Time [s],data 0,data 1,data 2,data 3
933.842,4,4,4,3
933.843,5,7,5,3
933.843,4,5,4,2
933.844,3,5,4,2
933.844,3,7,5,2
933.845,5,7,4,0
933.846,1,6,4,-2
933.846,0,3,2,-2
933.847,-2,0,0,-1
933.847,0,0,-1,0
933.848,1,0,0,2
933.848,3,0,0,3
933.849,4,2,2,5
933.85,4,1,0,5
933.85,6,2,1,5
933.851,7,3,0,4
933.851,6,3,2,4
933.852,5,2,2,4
933.852,5,1,1,4
933.853,4,0,1,4
933.854,4,2,1,3
933.854,4,3,2,4
933.855,4,3,3,2
933.855,3,3,4,2
933.856,1,1,2,2
933.856,2,2,2,2
933.857,2,3,4,3
933.858,2,2,3,2
933.858,1,1,1,1
933.859,0,0,0,1
933.859,1,0,0,1
933.86,2,1,0,2
933.86,4,3,1,3
933.861,5,4,2,3
933.862,4,4,1,2
933.862,6,6,1,3
933.863,6,7,3,2
933.863,4,5,3,2
933.864,4,7,5,2
933.864,4,8,6,1
933.865,1,6,3,0
933.866,0,3,2,0
933.866,2,3,1,-1
933.867,1,2,0,-1
933.867,0,0,0,0
933.868,2,2,0,1
933.868,2,3,2,2
933.869,4,6,4,2
933.87,2,2,2,3
933.87,2,0,0,2
933.871,3,0,0,3
933.871,3,0,1,5
933.872,5,2,1,5
933.872,6,2,2,5
933.873,7,5,5,6
933.874,6,5,3,4
933.874,3,3,3,2
933.875,1,0,1,2
933.875,2,2,2,2
933.876,3,2,2,2
933.876,2,0,1,4
933.877,3,0,0,2
933.878,4,4,2,4
933.878,7,7,2,2
933.879,8,7,1,0
933.879,4,3,-1,-2
933.88,0,1,0,-2
933.88,-1,0,0,-1
933.881,-1,0,1,0
933.882,0,0,1,2
933.882,1,1,3,4
933.883,4,2,4,6
933.883,6,4,4,5
933.884,6,5,5,6
933.885,5,7,7,5
933.885,6,8,8,5
933.886,5,8,9,4
933.886,4,6,5,1
933.887,1,3,0,-2
933.887,0,0,-1,-2
933.888,-1,0,0,-1
933.889,0,-1,-1,0
933.889,-1,-4,-4,0
933.89,1,-3,-2,4
933.89,7,4,3,6
933.891,11,10,7,7
933.891,8,8,5,4
933.892,4,2,0,2
933.893,3,0,-1,1
933.893,3,2,1,3
933.894,5,3,2,2
933.894,3,4,3,3
933.895,3,2,1,3
933.895,3,0,0,1
933.896,0,-1,-1,0
933.897,1,0,0,3
933.897,1,-1,0,5
933.898,3,-1,0,5
933.898,9,8,8,7
933.899,10,12,9,5
933.899,7,9,4,1
933.9,3,4,0,0
933.901,0,0,-2,-1
933.901,0,-1,-2,0
933.902,1,1,-2,0
933.902,3,4,2,1
933.903,5,9,6,3
933.903,5,7,6,2
933.904,3,7,6,0
933.905,-1,2,3,0
933.905,-2,1,3,0
933.906,0,3,4,3
933.906,4,6,6,4
933.907,4,6,4,5
933.908,7,7,2,3
933.908,10,8,0,0
933.909,9,7,-2,-3
933.909,2,1,-3,-3
933.91,-1,-1,-2,-3
933.91,-5,-5,-2,-1
933.911,-4,-6,-1,0
933.912,-1,-3,2,8
933.912,5,1,6,12
933.913,10,5,5,11
933.913,10,5,4,9
933.914,12,8,5,7
933.914,9,7,3,4
933.915,6,6,3,2
933.916,2,2,0,0
933.916,0,0,-2,-2
933.917,-1,0,-1,-1
933.917,0,2,2,0
933.918,2,3,4,3
933.919,3,5,5,4
933.919,3,2,1,1
933.92,1,0,0,0
933.92,3,0,0,1
933.921,2,0,0,2
933.921,3,2,2,4
933.922,4,4,3,3
933.922,3,3,3,3
933.923,2,3,5,5
933.924,5,7,8,7
933.924,7,9,8,4
933.925,4,6,4,1
933.925,1,6,5,0
933.926,0,4,3,1
933.927,1,4,2,1
933.927,4,5,0,0
933.928,5,3,-1,-2
933.928,0,0,-3,-3
933.929,0,0,-2,-1
933.929,0,0,0,0
933.93,0,0,0,3
933.931,2,0,1,4
933.931,4,3,4,7
933.932,7,3,3,7
933.932,7,2,2,6
933.933,7,4,2,4
933.933,6,5,5,4
933.934,3,3,2,3
933.935,2,1,2,2
933.935,2,2,3,2
933.936,2,4,2,0
933.936,0,0,0,1
933.937,2,1,1,3
933.937,4,2,0,2
933.938,4,0,-1,0
933.938,1,-1,-3,1
933.939,2,-2,-1,3
933.94,5,2,2,5
933.94,7,6,4,4
933.941,5,7,5,5
933.941,7,8,5,5
933.942,11,13,5,1
933.943,7,9,3,-1
933.943,1,2,-1,-4
933.944,-2,0,-1,-3
933.944,-1,1,0,0
933.945,1,4,4,2
933.945,5,8,6,3
933.946,3,5,3,0
933.947,0,0,-1,-1
933.947,0,1,2,0
933.948,0,1,4,3
933.948,1,2,5,4
933.949,3,4,6,4
933.949,2,2,3,3
933.95,1,0,0,2
933.951,2,0,0,4
933.951,5,1,2,5
933.952,5,2,1,5
933.952,7,2,1,4
933.953,7,3,2,4
933.953,5,4,3,4
933.954,4,4,2,3
933.955,3,2,1,2
933.955,2,1,1,1
933.956,1,0,0,1
933.956,2,1,0,0
933.957,0,0,1,2
933.958,0,1,2,3
933.958,5,4,3,2
933.959,3,4,4,2
933.959,1,1,3,3
933.96,2,0,1,2
933.96,2,1,0,4
933.961,7,6,1,5
933.962,13,10,1,2
933.962,8,7,0,0
933.963,3,3,0,-1
933.963,1,2,0,0
933.964,0,2,1,0
933.964,2,4,4,2
933.965,4,7,6,2
933.966,2,6,6,2
933.966,1,4,5,2
933.967,1,2,2,0
933.967,0,1,1,1
933.968,2,4,2,1
933.968,4,6,4,2
933.969,4,4,1,0
933.97,1,2,0,0
933.97,1,1,0,0
933.971,0,0,0,1
933.971,1,-1,0,2
933.972,1,-2,0,5
933.972,4,1,1,5
933.973,5,4,6,8
933.974,6,5,6,9
933.974,7,5,6,9
933.975,8,5,3,6
933.975,8,5,3,4
933.976,5,2,0,0
933.976,1,0,-3,-1
933.977,1,1,0,0
933.978,3,3,1,0
933.978,1,1,0,-1
933.979,-1,1,1,0
933.979,-2,0,2,0
933.98,-2,0,3,2
933.98,0,-1,2,4
933.981,0,-1,3,6
933.982,2,0,5,9
933.982,6,3,6,11
933.983,13,9,6,9
933.983,14,10,4,5
933.984,11,11,4,4
933.984,13,14,3,1
933.985,11,14,2,-4
933.986,4,8,-1,-9
933.986,-4,0,-4,-10
933.987,-8,-3,-4,-8
933.987,-7,-3,-3,-4
933.988,-3,0,0,0
933.988,0,0,0,1
933.989,2,0,1,4
933.99,4,1,4,7
933.99,5,2,3,6
933.991,5,1,2,7
933.991,6,1,2,6
933.992,5,1,2,7
933.992,6,2,4,7
933.993,5,3,5,7
933.994,6,4,6,6
933.994,4,4,4,5
933.995,6,6,6,6
933.995,5,5,4,2
933.996,3,1,0,0
933.997,0,0,-2,-2
933.997,-1,-1,0,0
933.998,0,0,1,1
933.998,1,1,1,2
933.999,3,1,0,1
933.999,2,1,0,2
934,3,2,2,3
934.001,5,4,3,4
934.001,6,5,3,3
934.002,5,5,3,1
934.002,4,6,3,1
934.003,2,4,3,1
934.003,2,3,1,0
934.004,1,4,3,1
934.005,3,4,3,2
934.005,4,6,3,1
934.006,4,6,4,1
934.006,3,7,6,2
934.007,3,4,3,1
934.008,1,2,1,-1
934.008,-2,-1,0,-1
934.009,-3,-1,1,0
934.009,0,0,2,2
934.01,1,2,3,3
934.01,3,2,3,5
934.011,5,3,2,6
934.011,7,3,0,4
934.012,7,3,1,5
934.013,8,4,1,4
934.013,8,6,2,2
934.014,6,5,1,2
934.014,4,1,0,1
934.015,2,0,-1,0
934.016,1,0,0,1
934.016,2,2,2,2
934.017,2,3,3,2
934.017,1,2,2,2
934.018,1,2,2,2
934.018,0,0,0,1
934.019,1,0,0,3
934.019,3,2,3,3
934.02,4,5,5,4
934.021,5,5,6,4
934.021,3,5,6,4
934.022,2,0,0,2
934.022,0,0,0,3
934.023,2,-1,-1,5
934.024,7,3,1,5
934.024,9,3,0,6
934.025,11,8,4,7
934.025,17,18,7,2
934.026,7,10,3,-4
934.026,-2,0,-1,-5
934.027,-4,-2,-1,-4
934.028,-2,1,0,-1
934.028,0,3,2,0
934.029,0,3,3,1
934.029,2,4,2,1
934.03,2,3,2,2
934.03,2,1,0,0
934.031,1,0,0,2
934.032,2,0,0,4
934.032,3,-1,0,6
934.033,4,0,2,8
934.033,7,6,7,8
934.034,6,6,8,7
934.034,5,5,6,6
934.035,4,4,5,6
934.036,8,7,4,4
934.036,8,7,1,0
934.037,1,0,-4,-5
934.037,-2,-3,-4,-2
934.038,0,0,-1,0
934.038,2,2,0,0
934.039,1,1,0,0
934.04,1,1,0,1
934.04,3,3,2,3
934.041,5,4,3,4
934.041,7,5,3,4
934.042,6,4,2,2
934.042,3,5,4,2
934.043,1,4,6,5
934.044,2,4,7,3
934.044,1,4,5,3
934.045,2,4,5,4
934.045,6,9,5,3
934.046,7,8,3,0
934.047,3,6,2,-1
934.047,0,1,-1,-3
934.048,-1,-1,-3,-3
934.048,0,0,-1,0
934.049,1,1,1,1
934.049,2,2,2,4
934.05,3,1,2,4
934.05,3,1,1,4
934.051,3,1,0,4
934.052,4,1,2,6
934.052,5,1,2,7
934.053,8,4,3,6
934.053,7,5,3,5
934.054,6,5,3,4
934.055,3,2,3,3
934.055,1,1,2,1
934.056,0,1,2,0
934.056,0,1,2,0
934.057,-1,0,0,0
934.057,-1,-4,-2,2
934.058,4,1,1,5
934.059,9,7,4,5
934.059,8,6,2,3
934.06,8,6,1,2
934.06,5,4,1,1
934.061,3,3,0,0
934.061,1,2,0,0
934.062,0,2,1,0
934.063,0,2,2,2
934.063,4,4,4,4
934.064,6,8,6,4
934.064,4,6,4,2
934.065,2,4,4,1
934.065,2,3,3,1
934.066,2,5,4,2
934.067,1,3,2,0
934.067,0,0,0,0
934.068,-1,0,1,2
934.068,1,2,2,3
934.069,4,3,2,3
934.069,5,4,2,2
934.07,3,2,0,2
934.071,4,3,1,4
934.071,8,5,2,3
934.072,8,5,0,2
934.072,6,4,0,0
934.073,4,3,0,0
934.073,4,4,1,2
934.074,2,2,1,1
934.075,2,1,1,1
934.075,0,1,2,2
934.076,0,0,1,2
934.076,0,-2,0,3
934.077,2,0,1,4
934.078,5,4,4,5
934.078,6,5,4,4
934.079,5,5,5,4
934.079,4,5,3,2
934.08,1,1,0,2
934.08,2,0,0,0
934.081,1,1,0,1
934.082,2,1,2,1
934.082,2,4,4,4
934.083,3,2,2,3
934.083,3,0,0,3
934.084,6,5,3,5
934.084,8,8,5,4
934.085,7,9,6,3
934.086,5,8,6,1
934.086,0,3,3,0
934.087,0,1,1,0
934.087,0,2,2,0
934.088,0,2,3,1
934.088,0,0,1,0
934.089,0,0,1,1
934.09,1,1,0,3
934.09,5,3,0,3
934.091,6,3,0,3
934.091,5,2,0,4
934.092,5,0,-1,2
934.092,4,0,-1,2
934.093,5,3,2,5
934.094,7,5,4,6
934.094,6,6,5,5
934.095,5,6,4,3
934.095,3,3,1,0
934.096,0,1,1,0
934.096,1,2,2,1
934.097,2,2,1,1
934.098,1,1,0,0
934.098,1,1,1,2
934.099,1,2,1,1
934.099,0,1,0,1
934.1,1,1,3,3
934.1,4,6,5,4
934.101,6,9,6,3
934.102,4,6,5,1
934.102,1,-1,-2,3
934.103,5,0,-3,2
934.103,7,2,-1,2
934.104,7,7,5,4
934.105,6,8,6,3
934.105,6,8,6,3
934.106,4,6,3,0
934.106,0,2,2,0
934.107,0,3,3,0
934.107,0,2,2,0
934.108,0,2,3,1
934.109,0,0,2,2
934.109,0,0,0,2
934.11,0,-2,-1,2
934.11,1,-1,0,4
934.111,4,2,4,7
934.111,6,4,5,9
934.112,11,7,3,8
934.113,12,7,1,2
934.113,6,5,0,0
934.114,2,2,0,0
934.114,2,2,0,0
934.115,3,2,0,1
934.115,3,2,0,0
934.116,4,4,0,0
934.117,3,3,1,0
934.117,0,0,0,0
934.118,0,0,0,0
934.118,1,0,1,2
934.119,3,2,3,4
934.119,5,5,5,4
934.12,4,4,4,4
934.121,3,4,4,3
934.121,2,3,3,2
934.122,1,2,3,3
934.122,2,2,2,3
934.123,5,4,3,4
934.124,7,7,4,3
934.124,7,8,5,3
934.125,6,7,3,1
934.125,3,6,3,0
934.126,1,4,3,-1
934.126,0,3,2,-1
934.127,-1,0,1,-1
934.128,-2,0,1,1
934.128,0,0,1,1
934.129,0,0,1,2
934.129,0,-1,0,3
934.13,2,1,1,4
934.13,4,2,4,6
934.131,6,4,3,6
934.132,5,3,2,5
934.132,6,3,2,5
934.133,6,3,2,5
934.133,6,5,4,4
934.134,4,2,1,3
934.134,2,0,-1,1
934.135,2,0,0,3
934.135,3,1,1,3
934.136,3,2,0,2
934.137,4,3,2,2
934.137,4,5,3,1
934.138,3,5,3,0
934.138,0,0,0,1
934.139,1,-1,-2,0
934.14,3,0,0,1
934.14,5,1,0,2
934.141,5,3,1,3
934.141,6,5,3,3
934.142,6,7,5,3
934.142,5,6,5,2
934.143,3,5,3,2
934.144,3,6,5,1
934.144,1,4,3,0
934.145,0,4,5,1
934.145,1,6,5,2
934.146,1,4,3,0
934.146,0,3,2,0
934.147,0,1,1,0
934.148,0,1,1,0
934.148,0,3,3,1
934.149,1,2,1,2
934.149,2,1,0,3
934.15,3,0,-1,3
934.15,3,0,0,4
934.151,5,0,0,5
934.152,7,2,1,6
934.152,9,4,2,7
934.153,9,5,3,6
934.153,10,9,4,4
934.154,5,4,2,1
934.154,3,3,2,0
934.155,2,4,3,0
934.156,1,2,2,0
934.156,-1,0,0,0
934.157,-1,-2,-2,-1
934.157,-1,-1,0,1
934.158,1,0,2,3
934.159,3,3,5,5
934.159,5,4,4,5
934.16,7,6,4,5
934.16,10,8,2,2
934.161,8,6,0,0
934.161,2,1,-2,-2
934.162,-2,-2,-1,0
934.163,-2,-2,0,1
934.163,0,-1,1,4
934.164,2,2,5,7
934.164,7,8,10,10
934.165,12,14,12,8
934.165,9,12,8,2
934.166,5,8,4,1
934.167,6,6,0,-2
934.167,3,3,-3,-6
934.168,-1,-2,-6,-7
934.168,-3,-3,-5,-4
934.169,-2,-2,-2,0
934.169,0,-3,-2,2
934.17,2,-1,1,6
934.171,6,4,5,9
934.171,8,7,8,8
934.172,5,3,6,6
934.172,4,1,3,6
934.173,5,3,4,5
934.173,6,4,3,4
934.174,4,5,3,3
934.175,4,4,2,2
934.175,3,4,0,0
934.176,2,3,1,0
934.176,2,2,0,-2
934.177,0,0,-1,0
934.177,0,1,1,2
934.178,1,0,2,2
934.179,1,1,3,3
934.179,1,1,1,3
934.18,2,2,2,2
934.18,2,1,3,4
934.181,3,2,4,5
934.181,5,3,3,4
934.182,5,4,3,5
934.183,5,5,4,4
934.183,6,6,4,4
934.184,7,9,6,3
934.184,6,9,5,2
934.185,5,7,2,-1
934.186,2,6,2,-2
934.186,0,2,0,-2
934.187,-1,0,-1,-3
934.187,-2,-1,-1,-2
934.188,-1,0,0,0
934.188,0,1,2,2
934.189,3,3,3,4
934.19,5,4,3,5
934.19,6,5,3,4
934.191,4,2,0,3
934.191,5,2,1,3
934.192,5,3,2,4
934.192,4,3,2,3
934.193,4,4,4,4
934.193,4,3,3,4
934.194,3,2,3,3
934.195,2,0,1,2
934.195,3,2,2,2
934.196,3,2,1,1
934.196,1,0,0,2
934.197,2,0,-1,2
934.198,4,0,-1,3
934.198,5,2,1,3
934.199,5,3,1,3
934.199,6,5,2,3
934.2,5,3,1,2
934.2,3,2,0,1
934.201,2,0,0,1
934.202,2,1,2,2
934.202,3,3,3,4
934.203,5,6,5,4
934.203,6,7,5,4
934.204,6,7,4,2
934.204,3,7,5,1
934.205,3,6,4,1
934.206,1,5,2,0
934.206,0,2,1,-1
934.207,-1,1,0,-1
934.207,0,0,0,0
934.208,0,1,1,0
934.208,0,0,2,2
934.209,-1,-1,2,2
934.21,-1,-1,3,5
934.21,0,0,4,7
934.211,4,2,6,10
934.211,9,7,7,10
934.212,11,8,5,8
934.213,11,7,2,6
934.213,14,9,0,1
934.214,7,5,-1,-2
934.214,0,0,-4,-2
934.215,0,0,-3,-2
934.215,0,0,-4,-2
934.216,2,2,-1,0
934.217,4,5,1,0
934.217,2,1,0,0
934.218,1,1,0,0
934.218,0,0,0,1
934.219,1,2,3,2
934.219,3,4,4,4
934.22,4,3,3,4
934.22,3,3,3,4
934.221,2,2,3,3
934.222,1,1,4,4
934.222,1,2,6,5
934.223,3,5,7,6
934.223,3,6,8,5
934.224,4,7,7,4
934.225,3,7,6,4
934.225,9,13,7,1
934.226,6,9,3,-2
934.226,2,5,0,-2
934.227,1,3,-3,-5
934.227,-2,-3,-7,-7
934.228,-5,-5,-5,-3
934.229,-1,-3,-2,1
934.229,3,1,2,5
934.23,7,4,3,6
934.23,7,4,3,6
934.231,6,3,2,5
934.231,5,1,2,6
934.232,4,1,1,5
934.233,4,1,2,6
934.233,7,4,4,5
934.234,5,4,4,4
934.234,3,2,3,4
934.235,0,0,2,5
934.235,3,1,2,4
934.236,3,3,3,3
934.237,3,5,3,2
934.237,3,3,1,0
934.238,1,2,1,1
934.238,2,2,0,0
934.239,2,1,-1,0
934.24,2,1,0,0
934.24,2,1,0,0
934.241,3,3,1,2
934.241,4,3,2,2
934.242,3,3,1,1
934.242,1,3,3,2
934.243,3,4,4,3
934.243,5,7,7,5
934.244,6,8,7,3
934.245,4,7,6,1
934.245,1,5,5,0
934.246,0,4,3,0
934.246,1,4,2,0
934.247,0,1,1,0
934.247,0,0,1,0
934.248,1,1,1,1
934.249,2,2,1,2
934.249,3,1,0,2
934.25,3,1,0,3
934.25,4,0,0,3
934.251,4,0,0,4
934.252,5,1,0,5
934.252,7,2,1,4
934.253,6,3,2,5
934.253,7,5,4,5
934.254,7,5,3,3
934.254,6,5,1,2
934.255,5,3,0,0
934.256,2,2,0,0
934.256,1,1,0,0
934.257,1,0,0,0
934.257,1,1,1,1
934.258,2,4,4,4
934.258,3,2,3,4
934.259,4,1,0,2
934.26,1,0,0,2
934.26,1,1,0,1
934.261,0,0,0,2
934.261,2,2,2,3
934.262,5,4,3,5
934.263,7,6,4,4
934.263,7,8,6,4
934.264,7,9,6,3
934.264,5,7,5,2
934.265,4,7,4,0
934.265,2,4,2,0
934.266,0,3,1,-1
934.267,0,1,1,-1
934.267,-1,1,1,0
934.268,0,2,2,0
934.268,1,3,2,0
934.269,1,1,1,1
934.269,0,0,1,3
934.27,2,1,1,3
934.27,2,0,2,4
934.271,1,-1,1,4
934.272,3,-2,1,6
934.272,5,0,1,7
934.273,8,3,4,8
934.273,11,9,7,9
934.274,10,9,6,6
934.274,8,5,2,3
934.275,4,1,0,0
934.276,1,0,-1,-2
934.276,0,1,0,-1
934.277,0,1,0,-1
934.277,0,1,0,0
934.278,2,3,1,1
934.279,3,4,1,0
934.279,3,2,0,0
934.28,3,3,0,1
934.28,3,1,0,0
934.281,1,-1,-2,2
934.281,4,0,0,4
934.282,6,5,5,8
934.283,10,9,9,8
934.283,9,10,8,5
934.284,6,8,6,2
934.284,3,6,4,0
934.285,0,3,1,-2
934.285,-1,2,0,-1
934.286,0,4,3,0
934.286,0,3,3,1
934.287,1,2,1,0
934.288,0,-1,-1,-2
934.288,-2,-3,-1,0
934.289,-2,-1,2,3
934.289,0,0,5,6
934.29,2,0,6,8
934.291,4,1,6,7
934.291,2,0,5,9
934.292,6,2,4,10
934.292,10,5,3,12
934.293,19,12,2,10
934.293,24,17,0,3
934.294,21,15,-5,-7
934.295,4,3,-9,-10
934.295,-2,-2,-10,-12
934.296,-9,-7,-8,-9
934.296,-9,-6,-4,-3
934.297,-1,0,2,2
934.297,2,5,7,6
934.298,4,7,8,6
934.299,4,4,5,4
934.299,3,2,3,3
934.3,2,2,2,4
934.3,5,4,4,5
934.301,6,5,4,4
934.301,4,3,3,3
934.302,2,0,1,2
934.303,1,1,2,3
934.303,3,3,5,5
934.304,4,5,6,6
934.304,5,6,6,4
934.305,4,7,6,2
934.305,3,7,6,2
934.306,1,5,4,0
934.307,0,3,1,-1
934.307,0,0,0,-1
934.308,0,0,-1,0
934.308,0,0,-1,0
934.309,1,0,0,2
934.31,4,3,3,3
934.31,3,2,2,4
934.311,3,1,1,3
934.311,3,0,1,4
934.312,5,1,2,5
934.312,6,4,3,5
934.313,6,7,6,5
934.314,5,6,4,3
934.314,4,3,1,2
934.315,3,3,2,1
934.315,2,1,0,0
934.316,0,0,0,0
934.316,1,1,1,2
934.317,2,1,1,2
934.318,3,0,0,1
934.318,2,0,0,2
934.319,3,0,0,3
934.319,5,3,1,4
934.32,6,4,2,3
934.32,4,3,2,2
934.321,2,3,2,2
934.322,4,4,3,4
934.322,6,8,6,4
934.323,5,7,5,1
934.323,2,6,5,0
934.324,-1,1,2,1
934.325,1,1,2,2
934.325,4,5,4,2
934.326,4,5,4,2
934.326,3,4,2,0
934.327,1,2,1,0
934.327,1,3,2,1
934.328,3,4,2,1
934.328,3,4,1,0
934.329,2,2,0,0
934.33,1,0,0,0
934.33,1,-1,0,2
934.331,1,0,0,2
934.331,1,0,0,3
934.332,2,0,3,7
934.333,6,3,4,9
934.333,11,9,7,7
934.334,8,6,4,5
934.334,5,3,2,3
934.335,4,3,0,1
934.335,3,2,0,1
934.336,3,1,0,0
934.336,2,1,-1,0
934.337,1,2,0,0
934.338,3,3,1,2
934.338,3,3,1,2
934.339,1,0,0,1
934.339,0,0,1,1
934.34,1,0,2,4
934.341,5,3,3,5
934.341,7,5,3,4
934.342,8,6,2,2
934.342,5,5,3,2
934.343,4,3,2,1
934.343,4,5,4,2
934.344,2,4,5,2
934.344,3,5,5,3
934.345,2,5,4,1
934.346,2,5,3,0
934.346,-1,1,1,-2
934.347,-4,-1,1,-1
934.347,-2,0,2,1
934.348,1,2,3,2
934.349,3,3,4,4
934.349,3,2,2,4
934.35,5,2,2,6
934.35,8,4,0,5
934.351,10,6,0,2
934.351,6,2,0,0
934.352,2,0,0,2
934.353,4,2,0,1
934.353,3,3,1,1
934.354,3,3,2,2
934.354,2,1,2,3
934.355,3,1,2,4
934.355,4,2,2,3
934.356,2,0,1,2
934.357,2,1,1,2
934.357,2,1,2,4
934.358,4,3,3,5
934.358,7,5,2,3
934.359,5,3,0,1
934.359,4,2,0,0
934.36,2,2,0,0
934.361,3,3,1,0
934.361,2,2,1,1
934.362,1,2,2,1
934.362,2,3,4,3
934.363,3,5,6,5
934.364,5,8,8,4
934.364,4,6,6,2
934.365,1,5,5,1
934.365,0,4,4,0
934.366,1,4,3,1
934.366,1,3,2,0
934.367,0,0,0,0
934.367,0,0,-1,0
934.368,1,1,1,2
934.369,4,3,1,3
934.369,5,4,2,3
934.37,5,3,1,3
934.37,4,2,0,4
934.371,8,3,0,3
934.372,6,1,-1,1
934.372,2,0,-1,2
934.373,3,1,0,3
934.373,5,2,0,3
934.374,4,4,3,3
934.374,2,3,4,5
934.375,3,3,4,4
934.376,4,2,2,3
934.376,3,2,2,3
934.377,3,3,1,2
934.377,4,5,4,3
934.378,5,4,3,2
934.378,3,2,1,0
934.379,1,1,-1,-1
934.38,0,0,0,-1
934.38,0,0,1,1
934.381,0,1,2,2
934.381,3,4,4,6
934.382,8,9,5,6
934.382,11,10,3,3
934.383,9,6,1,2
934.384,9,8,1,0
934.384,4,6,1,-3
934.385,-1,1,0,-2
934.385,-1,1,1,0
934.386,0,1,1,1
934.386,1,1,1,0
934.387,1,2,2,2
934.388,3,2,2,2
934.388,1,0,0,2
934.389,1,-1,0,4
934.389,3,0,2,5
934.39,5,2,4,6
934.391,5,2,3,7
934.391,6,3,4,6
934.392,6,3,3,5
934.392,5,4,3,3
934.393,3,1,2,4
934.393,3,3,3,4
934.394,6,5,3,2
934.394,6,6,3,1
934.395,1,1,0,-1
934.396,-2,-3,-3,-1
934.396,0,-1,-2,0
934.397,2,2,1,1
934.397,3,5,3,1
934.398,2,4,3,2
934.399,3,4,3,3
934.399,4,4,2,3
934.4,5,3,0,1
934.4,2,0,0,1
934.401,2,1,1,3
934.401,4,3,3,5
934.402,6,4,2,3
934.403,4,4,3,3
934.403,5,6,3,2
934.404,4,6,5,2
934.404,3,6,5,2
934.405,3,6,4,0
934.405,1,4,2,0
934.406,0,1,0,0
934.407,0,1,0,0
934.407,0,2,2,1
934.408,2,3,2,1
934.408,2,3,2,1
934.409,2,2,1,2
934.409,2,0,0,3
934.41,3,0,0,2
934.411,4,0,0,4
934.411,5,1,1,4
934.412,5,2,1,4
934.412,3,1,3,5
934.413,4,3,5,6
934.413,4,3,5,5
934.414,3,3,4,5
934.415,4,3,4,4
934.415,5,3,2,3
934.416,5,2,0,2
934.416,6,4,0,3
934.417,10,6,0,0
934.417,6,6,0,-2
934.418,2,3,-1,-3
934.419,0,0,-1,-1
934.419,0,-2,-2,-1
934.42,0,0,0,0
934.42,1,1,1,2
934.421,4,2,3,5
934.422,6,6,6,6
934.422,6,6,5,4
934.423,4,4,4,2
934.423,3,5,4,4
934.424,5,7,6,3
934.424,4,6,4,1
934.425,2,4,4,0
934.426,0,4,4,0
934.426,0,2,1,0
934.427,0,1,2,1
934.427,0,0,1,1
934.428,2,0,1,2
934.428,3,2,0,2
934.429,4,4,3,3
934.43,6,6,5,3
934.43,5,3,1,1
934.431,2,-1,-3,0
934.431,1,0,-1,1
934.432,3,1,0,3
934.432,3,0,2,5
934.433,6,5,4,6
934.434,6,6,5,4
934.434,5,4,4,2
934.435,3,4,3,2
934.435,0,0,0,1
934.436,1,0,0,2
934.437,1,0,0,1
934.437,0,1,1,3
934.438,3,2,2,2
934.438,3,2,1,3
934.439,3,2,1,2
934.439,2,2,1,2
934.44,5,2,0,3
934.44,8,5,2,4
934.441,9,7,1,2
934.442,5,4,1,0
934.442,3,5,3,1
934.443,3,6,4,1
934.443,2,6,6,2
934.444,0,4,4,1
934.444,0,3,2,0
934.445,1,2,1,-1
934.446,0,1,1,1
934.446,0,1,3,1
934.447,1,1,2,1
934.447,2,3,3,2
934.448,4,5,5,4
934.448,5,4,3,3
934.449,3,2,1,2
934.45,2,1,0,2
934.45,3,1,0,2
934.451,3,1,0,2
934.451,3,1,0,3
934.452,2,0,0,3
934.452,2,0,0,4
934.453,5,3,3,6
934.454,5,4,5,7
934.454,6,5,4,5
934.455,4,3,3,3
934.455,3,2,2,3
934.456,5,3,1,2
934.456,4,2,0,2
934.457,6,4,0,1
934.458,5,3,-1,0
934.458,3,1,-2,0
934.459,2,0,-2,0
934.459,3,1,-1,0
934.46,3,3,1,1
934.461,2,3,4,2
934.461,1,4,4,2
934.462,0,2,4,2
934.462,1,1,4,3
934.463,1,3,5,4
934.463,1,2,5,4
934.464,2,4,8,6
934.465,4,6,8,8
934.465,11,12,8,6
934.466,13,14,4,0
934.466,4,6,0,-5
934.467,-4,-2,-4,-4
934.467,-2,-2,-2,-1
934.468,0,0,-2,0
934.469,5,4,0,2
934.469,7,7,0,1
934.47,5,3,0,1
934.47,2,-1,-2,0
934.471,1,-3,-3,0
934.471,1,-1,-1,3
934.472,5,1,3,6
934.473,7,6,7,8
934.473,7,7,7,6
934.474,5,3,4,3
934.474,1,2,4,3
934.475,1,1,4,4
934.476,3,4,5,5
934.476,3,2,3,2
934.477,1,0,0,1
934.478,1,0,0,2
934.478,4,2,1,4
934.478,6,5,2,3
934.479,7,4,0,1
934.479,5,4,0,0
934.48,2,4,1,-1
934.481,0,1,1,0
934.481,0,2,1,0
934.482,0,2,3,1
934.482,1,3,4,0
934.483,1,3,4,2
934.484,1,2,4,4
934.484,4,5,6,6
934.485,6,6,5,5
934.485,6,5,3,3
934.486,6,7,3,2
934.486,5,7,3,1
934.487,3,3,0,0
934.488,1,0,-1,-1
934.488,0,-2,-3,-1
934.489,0,-1,-2,0
934.489,3,3,2,3
934.49,4,3,2,3
934.49,3,1,0,3
934.491,4,1,0,4
934.492,5,2,1,3
934.492,4,1,2,5
934.493,5,3,3,5
934.493,5,3,3,4
934.494,4,3,4,5
934.494,4,4,3,4
934.495,4,4,2,1
934.496,2,1,0,0
934.496,0,-2,-2,1
934.497,3,1,0,2
934.497,5,6,3,2
934.498,4,5,3,1
934.498,2,2,1,1
934.499,2,0,0,0
934.5,0,-2,-1,1
934.5,1,0,0,2
934.501,5,5,4,4
934.501,6,6,6,5
934.502,5,7,7,4
934.503,4,5,5,2
934.503,1,4,4,1
934.504,0,3,4,2
934.504,2,4,5,2
934.505,2,7,7,3
934.505,3,6,5,2
934.506,2,3,2,0
934.507,0,1,0,0
934.507,0,1,0,0
934.508,3,3,1,2
934.508,5,4,1,0
934.509,2,2,0,1
934.509,1,0,-1,0
934.51,1,0,0,1
934.511,3,1,0,3
934.511,5,1,1,4
934.512,5,1,1,4
934.512,4,1,1,5
934.513,8,5,3,5
934.513,6,5,4,5
934.514,4,4,4,4
934.515,3,3,2,3
934.515,2,1,1,2
934.516,2,0,0,1
934.516,2,2,1,2
934.517,3,3,2,3
934.517,5,5,3,2
934.518,3,4,2,1
934.519,3,3,0,0
934.519,0,0,-1,-1
934.52,1,0,-1,0
934.52,1,0,0,1
934.521,1,0,-1,1
934.521,3,2,1,5
934.522,8,7,6,6
934.523,8,9,6,6
934.523,7,9,8,3
934.524,2,5,5,0
934.524,-3,1,4,0
934.525,-1,1,5,2
934.526,0,3,5,3
934.526,2,5,4,3
934.527,2,2,2,1
934.527,1,1,0,0
934.528,1,1,0,2
934.528,6,4,1,4
934.529,11,8,1,2
934.529,7,5,0,0
934.53,1,0,-2,-1
934.531,-1,-2,-2,1
934.531,1,0,0,2
934.532,3,0,0,2
934.532,4,2,3,4
934.533,4,5,5,6
934.533,4,4,5,4
934.534,2,2,3,2
934.535,1,1,3,3
934.535,2,2,3,4
934.536,4,4,3,4
934.536,5,2,0,3
934.537,7,4,0,1
934.537,7,5,0,0
934.538,4,4,2,2
934.539,2,1,0,1
934.539,1,0,-1,0
934.54,0,-1,0,1
934.54,0,0,0,1
934.541,2,2,3,4
934.542,4,4,4,5
934.542,7,6,4,5
934.543,8,7,4,2
934.543,5,7,4,2
934.544,4,6,4,2
934.544,3,7,4,0
934.545,3,5,3,0
934.545,1,5,2,-1
934.546,0,3,1,-1
934.547,0,2,1,0
934.547,2,3,2,1
934.548,2,2,0,0
934.548,0,0,-1,0
934.549,-1,-4,-2,2
934.55,2,0,0,5
934.55,7,5,6,7
934.551,6,5,4,5
934.551,4,2,3,4
934.552,1,-2,0,4
934.552,4,0,0,5
934.553,6,4,5,8
934.554,7,5,5,5
934.554,5,5,4,4
934.555,5,5,3,3
934.555,3,3,1,1
934.556,2,2,0,0
934.556,1,1,-1,0
934.557,2,2,0,0
934.558,2,3,2,2
934.558,3,2,0,0
934.559,0,0,-1,-1
934.559,0,0,0,1
934.56,2,2,2,3
934.56,5,5,4,5
934.561,6,5,4,4
934.562,4,4,2,2
934.562,3,3,2,1
934.563,3,4,3,3
934.563,6,8,6,4
934.564,6,8,6,2
934.564,4,6,3,0
934.565,0,0,0,-1
934.566,1,1,1,0
934.566,3,5,3,2
934.567,3,4,3,1
934.567,2,3,1,0
934.568,0,0,0,0
934.568,0,0,0,2
934.569,0,-1,0,3
934.57,2,-2,-1,3
934.57,3,0,0,5
934.571,6,2,3,8
934.571,8,4,4,7
934.572,8,3,2,6
934.573,8,6,4,5
934.573,7,7,5,5
934.574,7,7,3,3
934.574,5,5,1,0
934.575,3,3,-1,-1
934.575,0,1,-2,-2
934.576,1,2,-1,-1
934.577,0,1,0,-1
934.577,0,1,0,-2
934.578,-1,0,0,0
934.578,0,-1,0,1
934.579,2,1,2,4
934.579,4,3,5,6
934.58,5,4,5,6
934.581,5,4,5,5
934.581,4,3,4,4
934.582,2,2,4,4
934.582,2,3,5,4
934.583,5,6,7,6
934.583,6,8,6,3
934.584,3,8,7,1
934.585,0,6,6,0
934.585,-1,0,1,0
934.586,0,-2,-3,-1
934.586,0,0,0,0
934.587,0,2,2,2
934.588,2,3,4,3
934.588,2,3,4,4
934.589,4,2,1,5
934.589,9,6,0,3
934.59,9,5,-1,0
934.59,5,1,-3,0
934.591,3,0,-2,1
934.592,3,0,-2,2
934.592,5,1,0,3
934.593,9,7,3,4
934.593,9,7,2,2
934.594,6,5,3,1
934.594,1,1,1,0
934.595,-1,-1,0,0
934.596,-2,-1,1,1
934.596,-1,0,3,4
934.597,1,2,5,6
934.597,5,4,5,5
934.598,3,3,3,3
934.598,2,1,2,3
934.599,4,3,1,4
934.599,8,7,4,5
934.6,11,9,2,0
934.601,5,5,0,-1
934.601,0,0,-2,-3
934.602,0,0,0,0
934.602,0,1,2,1
934.603,2,4,4,3
934.604,2,2,2,3
934.604,2,0,1,3
934.605,5,7,6,5
934.605,6,8,7,4
934.606,5,7,4,1
934.606,1,4,3,1
934.607,2,4,3,0
934.608,1,3,2,0
934.608,0,0,-2,-1
934.609,0,-1,-2,0
934.609,0,0,0,2
934.61,3,1,2,4
934.61,3,1,1,4
934.611,2,0,1,6
934.612,4,2,3,6
934.612,6,3,3,7
934.613,7,5,6,7
934.613,6,5,4,5
934.614,5,3,2,3
934.615,3,1,0,3
934.615,3,1,0,2
934.616,4,2,0,1
934.616,3,3,1,0
934.617,1,2,1,0
934.617,1,2,1,0
934.618,2,1,1,1
934.618,1,0,1,0
934.619,1,0,0,2
934.62,1,1,1,3
934.62,3,2,3,5
934.621,5,3,2,4
934.621,5,3,2,4
934.622,6,4,2,3
934.622,5,5,3,3
934.623,5,7,4,3
934.624,5,7,5,2
934.624,3,6,3,0
934.625,2,4,3,-1
934.625,1,3,2,0
934.626,0,3,3,0
934.627,0,3,3,0
934.627,0,3,2,0
934.628,0,1,2,0
934.628,0,0,1,1
934.629,1,0,0,3
934.629,3,1,0,5
934.63,5,1,1,5
934.631,7,2,0,4
934.631,5,0,-2,4
934.632,6,0,-1,5
934.632,10,5,2,6
934.633,11,10,6,5
934.633,7,8,5,2
934.634,2,3,1,0
934.635,1,3,1,0
934.635,0,0,1,-1
934.636,-1,0,-1,-1
934.636,0,0,0,0
934.637,0,0,1,1
934.637,2,0,1,3
934.638,3,0,0,3
934.639,4,1,0,3
934.639,5,3,2,4
934.64,7,5,3,5
934.64,6,5,3,4
934.641,6,4,2,2
934.641,3,2,2,3
934.642,4,4,4,4
934.643,4,4,5,3
934.643,4,5,5,2
934.644,2,5,5,1
934.644,0,4,3,0
934.645,0,4,4,0
934.646,1,6,5,2
934.646,5,7,3,0
934.647,3,5,2,0
934.647,0,1,0,-2
934.648,-2,-2,-1,-1
934.648,-1,-4,-2,2
934.649,2,-1,0,4
934.65,4,0,1,6
934.65,7,2,1,6
934.651,5,1,0,6
934.651,6,1,1,5
934.652,6,3,3,7
934.652,8,6,5,6
934.653,9,9,6,5
934.654,7,8,6,3
934.654,5,6,3,0
934.655,1,5,2,-1
934.655,-1,0,-1,-2
934.656,-1,0,-2,-2
934.656,-1,-1,-1,0
934.657,0,-3,-3,0
934.658,0,-4,-3,2
934.658,3,0,0,4
934.659,5,4,4,6
934.659,7,5,5,8
934.66,8,7,4,6
934.66,7,5,3,3
934.661,3,2,1,2
934.662,3,3,3,3
934.662,5,6,4,3
934.663,3,3,4,3
934.663,3,4,3,2
934.664,2,4,3,1
934.664,3,4,3,1
934.665,4,6,3,2
934.666,7,9,3,0
934.666,4,7,1,-2
934.667,0,3,0,-3
934.667,-2,0,-1,-4
934.668,-2,0,0,-1
934.668,-1,0,1,0
934.669,0,0,1,2
934.67,2,1,1,3
934.67,2,1,1,4
934.671,3,1,2,6
934.671,4,1,3,5
934.672,3,1,4,8
934.673,6,4,6,8
934.673,6,5,6,6
934.674,5,3,4,4
934.674,3,3,3,4
934.675,2,0,1,3
934.675,4,1,0,2
934.676,4,2,0,3
934.677,7,4,0,2
934.677,7,5,0,0
934.678,3,4,0,0
934.678,0,0,-2,-1
934.679,1,0,-1,0
934.679,3,2,0,0
934.68,4,3,0,1
934.681,4,4,2,2
934.681,4,5,4,3
934.682,3,2,1,2
934.682,3,2,1,2
934.683,2,3,3,2
934.683,3,5,5,5
934.684,5,6,5,4
934.685,4,5,5,2
934.685,3,6,6,3
934.686,4,7,5,2
934.686,5,8,4,0
934.687,1,4,0,-2
934.687,0,0,-1,-2
934.688,-1,-1,-2,-2
934.689,-1,-3,-2,0
934.689,0,-2,0,3
934.69,3,0,1,6
934.69,6,3,3,6
934.691,5,3,5,6
934.691,5,3,4,6
934.692,6,6,5,7
934.693,8,7,6,6
934.693,7,7,4,3
934.694,2,0,-2,1
934.694,1,-1,-3,1
934.695,3,1,0,0
934.695,1,1,0,1
934.696,2,1,0,2
934.697,3,1,0,2
934.697,4,3,1,1
934.698,2,2,2,1
934.698,2,1,1,3
934.699,3,2,2,2
934.7,2,1,2,3
934.7,2,1,1,1
934.701,2,1,2,2
934.701,2,3,3,4
934.702,5,6,4,4
934.702,6,7,5,4
934.703,5,7,5,4
934.703,7,8,4,2
934.704,6,7,2,1
934.705,5,7,2,0
934.705,6,7,1,-1
934.706,2,4,0,-4
934.706,-3,1,0,-4
934.707,-3,0,-1,-2
934.708,-1,0,-1,0
934.708,0,1,1,1
934.709,3,3,3,3
934.709,2,3,4,4
934.71,1,0,2,4
934.71,2,0,2,5
934.711,4,0,2,6
934.712,4,0,2,6
934.712,6,3,4,7
934.713,8,6,5,7
934.713,5,3,2,5
934.714,3,-1,-1,3
934.714,3,1,2,6
934.715,8,7,4,5
934.716,9,8,3,1
934.716,3,4,1,0
934.717,0,0,0,-1
934.717,-1,-1,-1,-1
934.718,-1,-1,-1,0
934.718,0,0,0,0
934.719,3,2,1,3
934.72,5,4,3,4
934.72,4,3,3,3
934.721,4,3,2,2
934.721,3,2,1,2
934.722,5,5,3,4
934.722,5,6,4,3
934.723,6,8,7,3
934.724,2,5,5,1
934.724,0,2,3,0
934.725,0,4,3,0
934.725,2,5,4,1
934.726,1,5,3,0
934.726,0,2,1,0
934.727,1,2,0,1
934.728,5,5,1,1
934.728,7,6,1,0
934.729,4,3,0,0
934.729,0,0,0,0
934.73,0,-1,0,1
934.73,0,0,0,3
934.731,2,0,1,5
934.732,4,0,0,6
934.732,6,3,4,8
934.733,7,5,4,7
934.733,6,5,4,6
934.734,5,4,3,5
934.734,5,3,2,3
934.735,3,2,1,1
934.736,1,0,0,0
934.736,0,0,1,1
934.737,0,2,3,2
934.737,2,3,4,3
934.738,3,3,2,2
934.738,3,2,0,1
934.739,2,1,0,0
934.74,4,3,1,2
934.74,4,3,1,2
934.741,5,4,1,3
934.741,5,3,0,1
934.742,4,2,0,2
934.742,3,3,2,3
934.743,5,5,5,4
934.744,4,8,7,3
934.744,3,6,6,3
934.745,0,4,5,1
934.745,0,3,3,0
934.746,0,2,3,1
934.747,0,2,2,2
934.747,3,3,2,3
934.748,7,6,2,2
934.748,7,6,0,-1
934.749,4,3,-2,-1
934.749,5,3,-3,-2
934.75,3,2,-2,-1
934.751,0,0,-1,0
934.751,1,-1,-2,1
934.752,1,-2,-1,4
934.752,5,3,5,9
934.753,8,6,6,8
934.753,6,4,4,6
934.754,4,3,3,4
934.755,3,1,2,3
934.755,2,1,1,2
934.756,2,1,1,2
934.756,1,0,1,2
934.757,2,2,2,2
934.757,2,3,3,3
934.758,3,3,3,3
934.759,4,3,3,2
934.759,3,3,2,1
934.76,2,1,0,0
934.76,3,2,0,1
934.761,2,1,1,1
934.762,3,3,3,3
934.762,4,5,4,3
934.763,5,6,5,3
934.763,4,6,5,3
934.764,4,5,4,3
934.764,3,5,4,2
934.765,2,4,2,1
934.765,3,5,4,0
934.766,2,5,4,0
934.767,1,4,2,-1
934.767,0,1,0,-1
934.768,0,0,0,0
934.768,2,2,0,2
934.769,4,3,0,2
934.77,3,1,0,2
934.77,2,0,0,2
934.771,1,-1,0,3
934.771,1,0,1,4
934.772,4,0,2,6
934.772,6,4,6,8
934.773,8,6,5,7
934.774,9,6,4,5
934.774,6,4,2,2
934.775,1,1,0,1
934.775,2,2,1,2
934.776,3,3,2,1
934.776,2,2,1,1
934.777,2,3,2,1
934.778,2,2,1,0
934.778,0,0,0,0
934.779,1,1,1,0
934.779,1,0,0,2
934.78,2,2,2,2
934.78,4,4,3,3
934.781,4,5,4,3
934.782,4,4,4,3
934.782,4,5,4,4
934.783,5,7,5,3
934.783,4,7,5,2
934.784,3,7,5,0
934.784,0,2,2,0
934.785,0,0,0,0
934.786,1,0,0,0
934.786,3,4,2,2
934.787,5,6,4,1
934.787,2,5,4,1
934.788,1,1,1,1
934.789,0,-2,-1,2
934.789,1,-4,-3,2
934.79,4,0,0,3
934.79,4,2,3,5
934.791,4,2,3,6
934.791,5,0,1,7
934.792,7,2,2,6
934.792,8,4,3,6
934.793,7,4,3,4
934.794,7,4,2,4
934.794,6,4,2,2
934.795,5,2,0,0
934.795,3,1,0,-1
934.796,2,4,2,0
934.796,2,5,3,0
934.797,1,4,2,0
934.798,-1,1,0,0
934.798,0,0,0,-1
934.799,0,0,1,1
934.799,0,1,2,2
934.8,3,3,2,4
934.8,5,3,1,3
934.801,4,1,0,3
934.802,3,0,-1,4
934.802,8,3,2,7
934.803,13,13,10,6
934.803,9,12,10,3
934.804,2,5,4,0
934.805,-1,1,2,-1
934.805,-3,0,3,-1
934.806,-4,0,3,0
934.806,-2,0,4,2
934.807,-1,1,5,4
934.807,2,3,5,5
934.808,5,4,4,6
934.809,8,5,1,3
934.809,7,3,-1,2
934.81,9,6,0,1
934.81,7,3,-3,-1
934.811,2,0,-3,-1
934.811,0,-1,-3,0
934.812,1,0,0,2
934.813,3,3,3,5
934.813,7,6,6,6
934.814,6,5,4,3
934.814,3,3,3,4
934.815,3,2,1,3
934.815,4,2,1,1
934.816,2,1,1,2
934.817,2,1,0,1
934.817,1,0,0,0
934.818,2,2,0,1
934.818,2,3,2,2
934.819,2,2,0,3
934.819,3,0,0,3
934.82,4,1,0,2
934.821,5,4,3,4
934.821,6,6,5,4
934.822,5,7,6,5
934.822,7,8,6,2
934.823,5,9,8,2
934.823,3,7,5,0
934.824,2,6,3,0
934.825,0,3,2,-2
934.825,-5,-2,0,-2
934.826,-4,-5,-4,0
934.826,0,-1,-1,0
934.827,3,4,3,4
934.827,5,6,6,5
934.828,5,5,5,4
934.829,4,3,3,4
934.829,3,1,0,2
934.83,1,0,0,2
934.83,3,0,1,4
934.831,5,2,1,5
934.831,5,1,0,5
934.832,6,4,4,6
934.833,6,5,4,6
934.833,6,4,4,5
934.834,5,4,3,3
934.834,4,2,2,1
934.835,2,0,0,0
934.836,0,0,-1,0
934.836,0,0,0,0
934.837,0,1,0,1
934.837,1,2,2,1
934.838,2,1,2,3
934.838,3,1,0,2
934.839,4,1,0,3
934.84,7,4,0,3
934.84,8,7,2,2
934.841,6,5,2,1
934.841,4,5,4,2
934.842,3,6,6,3
934.842,4,8,7,2
934.843,3,5,5,1
934.844,2,3,2,0
934.844,0,2,3,0
934.845,0,3,4,1
934.845,1,5,4,1
934.846,3,8,6,0
934.846,0,4,3,-1
934.847,-2,-3,-2,-1
934.848,-1,-3,-2,0
934.848,1,0,1,3
934.849,5,4,4,5
934.849,7,4,3,4
934.85,6,2,1,4
934.851,7,2,0,4
934.851,5,0,-1,1
934.852,5,2,0,4
934.852,7,6,2,4
934.853,7,6,3,4
934.853,4,3,1,1
934.854,0,0,0,0
934.855,-2,-3,0,1
934.855,-1,-1,2,3
934.856,0,-1,2,5
934.856,2,0,3,6
934.857,5,3,4,6
934.857,5,4,4,5
934.858,6,5,5,5
934.859,6,5,3,3
934.859,6,5,2,2
934.86,5,3,0,0
934.86,2,0,-4,0
934.861,5,2,-3,1
934.861,9,8,1,1
934.862,8,12,6,1
934.862,5,12,7,0
934.863,0,6,5,-2
934.864,-3,0,1,-2
934.864,-3,0,1,-2
934.865,-3,0,3,0
934.865,-2,0,3,1
934.866,0,1,5,3
934.867,1,4,7,5
934.867,2,2,4,5
934.868,2,0,2,5
934.868,4,0,0,5
934.869,5,1,1,6
934.869,10,5,2,6
934.87,12,8,1,4
934.871,8,5,0,0
934.871,3,0,-3,0
934.872,1,-1,-3,0
934.872,3,1,0,2
934.873,4,3,2,3
934.873,5,3,2,2
934.874,3,2,1,3
934.875,5,4,2,2
934.875,4,2,0,2
934.876,4,2,1,1
934.876,2,2,1,1
934.877,3,4,4,2
934.878,2,5,6,3
934.878,1,0,1,1
934.879,0,0,0,1
934.879,0,0,0,1
934.88,-1,-1,1,2
934.88,0,0,4,3
934.881,1,1,4,6
934.882,7,6,6,6
934.882,5,6,6,4
934.883,4,6,6,5
934.883,7,8,6,5
934.884,5,5,2,1
934.884,3,4,2,0
934.885,2,5,2,1
934.885,2,5,2,2
934.886,5,6,1,1
934.887,8,8,0,-1
934.887,5,5,-2,-4
934.888,0,2,-1,-2
934.888,-1,1,0,-1
934.889,-1,0,-1,-2
934.89,-2,-2,0,0
934.89,0,-1,0,3
934.891,2,0,3,6
934.891,5,1,1,7
934.892,4,-2,0,8
934.892,8,5,6,9
934.893,9,7,7,8
934.894,7,6,6,7
934.894,5,3,3,4
934.895,4,1,1,2
934.895,3,0,0,0
934.896,1,2,1,1
934.896,1,1,0,1
934.897,2,1,0,2
934.898,4,3,1,2
934.898,4,3,0,0
934.899,2,1,0,1
934.899,2,1,1,1
934.9,3,3,1,2
934.901,3,3,2,1
934.901,2,3,2,2
934.902,3,3,3,2
934.902,3,5,5,4
934.903,4,7,6,5
934.903,6,7,6,3
934.904,3,5,3,0
934.904,0,3,3,0
934.905,1,4,3,0
934.906,1,3,2,1
934.906,2,2,0,0
934.907,1,2,0,0
934.907,2,2,0,0
934.908,2,3,1,2
934.908,4,4,1,1
934.909,3,2,1,1
934.91,2,1,0,2
934.91,3,1,0,2
934.911,3,0,0,3
934.911,3,1,1,4
934.912,5,3,3,5
934.912,5,3,3,5
934.913,5,4,4,5
934.914,7,6,4,4
934.914,4,4,2,3
934.915,4,0,-1,1
934.915,2,0,-1,1
934.916,3,1,0,2
934.917,4,3,1,1
934.917,3,3,2,3
934.918,6,6,3,2
934.918,3,6,3,0
934.919,1,5,3,0
934.919,-2,-1,0,-1
934.92,-2,-2,0,1
934.921,0,-2,0,2
934.921,2,1,3,6
934.922,7,5,6,7
934.922,7,8,7,6
934.923,7,8,7,6
934.923,7,9,5,3
934.924,5,9,5,0
934.925,3,5,2,-1
934.925,1,3,1,-1
934.926,0,3,0,-1
934.926,-1,0,0,-1
934.927,-1,-1,0,0
934.927,-1,-2,-1,1
934.928,1,0,0,3
934.929,3,1,1,5
934.929,6,3,3,6
934.93,7,3,2,6
934.93,7,3,1,4
934.931,6,3,1,5
934.932,6,3,1,5
934.932,7,3,1,5
934.933,8,6,3,4
934.933,6,6,3,2
934.934,2,4,3,1
934.934,0,1,1,0
934.935,0,0,0,0
934.935,0,0,0,0
934.936,2,1,0,1
934.937,2,2,0,1
934.937,2,0,0,2
934.938,3,2,1,2
934.938,4,4,3,2
934.939,2,3,3,2
934.94,2,2,2,2
934.94,2,4,3,2
934.941,2,3,3,2
934.941,1,2,3,3
934.942,3,5,5,3
934.942,4,6,5,4
934.943,4,8,7,4
934.944,3,7,5,1
934.944,1,2,1,0
934.945,3,2,0,2
934.945,7,6,1,3
934.946,9,7,0,1
934.946,6,5,-1,-1
934.947,2,1,-2,-1
934.948,0,0,-1,-1
934.948,0,0,0,0
934.949,0,0,0,1
934.949,2,1,0,3
934.95,5,3,4,5
934.95,4,1,2,4
934.951,1,-1,1,4
934.952,1,0,3,6
934.952,5,4,6,8
934.953,7,6,7,8
934.953,7,6,6,7
934.954,5,3,4,5
934.954,5,4,2,3
934.955,6,4,0,1
934.956,4,3,-1,0
934.956,3,2,-1,-1
934.957,2,2,0,-1
934.957,0,0,-2,-2
934.958,0,0,-1,0
934.958,0,0,0,1
934.959,3,3,1,2
934.96,3,3,3,2
934.96,3,3,3,4
934.961,2,2,5,5
934.961,2,0,2,5
934.962,5,3,3,6
934.962,7,9,8,6
934.963,7,9,7,4
934.964,4,7,5,1
934.964,2,6,5,0
934.965,1,4,3,0
934.965,-1,1,1,-1
934.966,-2,0,0,-1
934.966,-2,0,1,1
934.967,1,2,3,3
934.968,3,4,4,3
934.968,3,2,1,2
934.969,2,0,-1,1
934.969,2,0,0,3
934.97,4,0,0,4
934.971,5,2,1,4
934.971,6,3,2,5
934.972,7,6,3,5
934.972,9,11,6,5
934.973,8,10,5,2
934.973,5,6,0,-1
934.974,0,-1,-4,-3
934.975,-1,-6,-8,-3
934.975,0,-3,-4,0
934.976,4,1,0,3
934.976,6,5,3,4
934.977,6,5,4,5
934.977,5,5,4,4
934.978,5,4,1,2
934.979,4,3,0,0
934.979,0,0,0,-1
934.98,-3,-3,0,3
934.98,2,1,4,6
934.981,5,3,3,3
934.981,3,3,4,4
934.982,1,3,7,5
934.983,2,5,9,8
934.983,5,8,9,7
934.984,5,7,6,3
934.984,3,6,5,0
934.985,1,3,4,0
934.985,0,3,3,0
934.986,0,1,0,0
934.987,0,0,-1,0
934.987,1,2,0,0
934.988,4,5,2,1
934.988,5,5,1,1
934.989,4,4,1,0
934.989,2,1,-1,0
934.99,0,-4,-4,1
934.991,2,-3,-2,4
934.991,7,2,1,7
934.992,9,6,4,7
934.992,12,12,8,4
934.993,7,11,6,1
934.993,1,2,0,0
934.994,0,0,-1,0
934.995,0,-3,-3,-1
934.995,-1,-2,-2,0
934.996,0,0,1,4
934.996,4,3,4,6
934.997,5,2,2,4
934.998,3,0,0,4
934.998,6,5,4,5
934.999,5,5,3,3
934.999,4,4,3,3
935,4,2,0,3
935,3,3,1,1
935.001,3,2,1,0
935.002,2,3,2,1
935.002,1,3,3,3
935.003,5,7,5,3
935.003,6,9,7,3
935.004,4,9,8,1
935.004,0,4,4,0
935.005,0,3,1,0
935.006,2,3,1,0
935.006,0,0,0,-1
935.007,0,0,-1,0
935.007,1,2,0,1
935.008,3,4,3,3
935.008,4,4,3,3
935.009,3,1,0,2
935.01,2,0,0,1
935.01,1,-1,0,3
935.011,2,0,1,5
935.011,6,4,3,6
935.012,7,6,5,6
935.012,7,6,5,5
935.013,5,5,3,4
935.014,4,4,3,4
935.014,5,3,2,1
935.015,3,3,0,1
935.015,2,2,0,0
935.016,3,2,-1,0
935.016,3,1,0,0
935.017,2,0,0,0
935.018,0,0,0,0
935.018,0,0,1,2
935.019,1,0,2,4
935.019,4,2,2,4
935.02,5,3,3,5
935.021,6,4,3,4
935.021,6,5,4,4
935.022,5,5,3,3
935.022,4,5,4,2
935.023,3,6,4,1
935.023,3,7,5,3
935.024,3,7,5,2
935.024,2,5,3,0
935.025,0,2,2,0
935.026,0,2,1,0
935.026,0,1,0,0
935.027,1,2,2,2
935.027,3,3,1,1
935.028,2,2,2,2
935.029,2,0,1,2
935.029,3,0,1,3
935.03,4,2,1,4
935.03,4,2,1,4
935.031,5,2,0,3
935.031,4,2,0,3
935.032,5,4,3,5
935.033,8,7,4,3
935.033,6,7,3,2
935.034,1,2,0,0
935.034,-2,-3,-3,-1
935.035,-2,-2,-1,0
935.035,-2,0,2,3
935.036,1,0,4,5
935.037,3,2,3,7
935.037,8,5,4,6
935.038,7,6,4,5
935.038,6,5,3,4
935.039,4,3,2,3
935.039,4,2,0,2
935.04,5,3,0,1
935.041,3,2,0,1
935.041,3,2,0,1
935.042,4,4,2,1
935.042,4,3,1,0
935.043,3,4,2,0
935.043,3,5,3,1
935.044,4,6,4,0
935.045,2,6,4,0
935.045,1,6,5,1
935.046,0,3,3,1
935.046,1,1,0,2
935.047,3,1,0,1
935.047,3,1,0,2
935.048,3,0,-1,1
935.049,1,-4,-3,1
935.049,2,-1,-2,2
935.05,4,1,1,6
935.05,8,5,4,7
935.051,7,5,4,5
935.052,7,5,5,4
935.052,5,6,5,4
935.053,3,5,3,1
935.053,1,3,2,0
935.054,0,3,4,2
935.054,1,4,4,3
935.055,2,3,4,2
935.056,1,3,3,1
935.056,1,2,2,1
935.057,1,0,0,1
935.057,1,0,0,1
935.058,2,0,0,-1
935.058,0,0,0,0
935.059,2,1,1,3
935.06,7,5,1,4
935.06,9,5,0,3
935.061,7,6,1,1
935.061,5,5,0,-1
935.062,2,2,0,-1
935.062,1,3,2,3
935.063,4,2,2,6
935.063,7,3,2,6
935.064,8,7,5,4
935.065,6,11,9,3
935.065,3,7,7,3
935.066,0,1,1,0
935.066,-1,-3,-3,-4
935.067,-5,-4,-3,-3
935.068,-4,-3,0,0
935.068,-1,-1,2,5
935.069,5,4,7,10
935.069,12,12,10,9
935.07,10,11,8,4
935.07,4,5,3,1
935.071,1,1,1,1
935.072,2,0,-2,0
935.072,3,2,-1,-1
935.073,2,0,-2,0
935.073,2,0,-2,1
935.074,2,0,-2,3
935.074,8,7,3,6
935.075,11,12,7,4
935.076,7,7,4,2
935.076,3,1,0,0
935.077,2,2,0,0
935.077,2,0,-2,0
935.078,2,-2,-5,-2
935.078,1,0,-2,0
935.079,2,2,4,5
935.08,4,4,5,7
935.08,4,4,5,6
935.081,1,0,3,4
935.081,0,0,4,7
935.082,1,-4,0,6
935.083,1,-5,-2,4
935.083,2,0,1,3
935.084,5,9,8,4
935.084,6,14,11,2
935.085,5,14,11,0
935.085,1,9,7,-1
935.086,1,7,4,0
935.087,3,7,2,-2
935.087,0,5,3,-3
935.088,-2,5,9,3
935.088,-1,4,8,2
935.089,-1,1,2,0
935.089,-3,-2,0,0
935.09,-3,-4,-1,1
935.091,0,-2,0,4
935.091,2,-4,-5,3
935.092,4,-4,-7,0
935.092,6,3,0,3
935.093,10,8,3,7
935.093,15,13,6,7
935.094,18,18,7,7
935.095,18,16,2,0
935.095,11,10,-3,-7
935.096,2,0,-9,-7
935.096,-2,-11,-15,-3
935.097,3,-6,-7,5
935.097,8,1,6,16
935.098,10,4,14,18
935.099,6,0,12,14
935.099,0,-6,5,5
935.1,-11,-16,-6,-5
935.1,-18,-26,-21,-14
935.101,-17,-19,-13,-4
935.101,-1,0,6,11
935.102,13,16,21,22
935.103,24,28,27,21
935.103,22,26,20,12
935.104,17,22,10,0
935.104,5,11,1,-7
935.105,-3,-3,-12,-12
935.105,-5,-6,-14,-8
935.106,2,3,-4,-3
935.107,5,5,-2,-3
935.107,3,6,1,1
935.108,8,12,8,4
935.108,8,16,13,1
935.109,0,10,10,-2
935.109,-5,8,11,-2
935.11,-7,3,5,-6
935.111,-8,1,1,-8
935.111,-7,2,3,-4
935.112,-4,2,4,1
935.112,-4,-9,-3,4
935.113,0,-12,-6,8
935.113,6,-3,-1,6
935.114,7,1,0,5
935.115,9,5,0,5
935.115,12,9,1,6
935.116,15,10,0,3
935.116,14,9,-3,0
935.117,12,9,0,2
935.117,11,11,8,9
935.118,5,2,12,16
935.119,0,-10,5,14
935.119,-2,-18,-5,3
935.12,-9,-18,-7,-1
935.12,-10,-12,-1,2
935.121,-5,-3,8,8
935.122,1,1,7,6
935.122,3,7,11,9
935.123,6,5,6,7
935.123,9,9,5,6
935.124,13,18,11,6
935.124,14,18,10,5
935.125,12,13,0,-7
935.125,1,4,-7,-14
935.126,-6,-4,-16,-18
935.127,-8,-6,-16,-15
935.127,-2,0,-8,-8
935.128,3,7,3,1
935.128,6,9,5,5
935.129,10,11,8,6
935.13,9,11,10,8
935.13,4,6,12,12
935.131,4,2,12,17
935.131,9,7,16,20
935.132,14,13,19,16
935.132,7,1,5,6
935.133,-2,-13,-11,0
935.134,-1,-15,-13,1
935.134,5,-6,-10,-1
935.135,0,-9,-17,-14
935.135,-11,-16,-22,-17
935.136,-10,-13,-19,-9
935.136,4,3,-7,-4
935.137,12,14,0,-5
935.138,10,22,10,1
935.138,11,22,17,7
935.139,10,18,15,9
935.139,14,26,25,15
935.14,18,32,29,10
935.141,2,14,21,6
935.141,-7,-1,10,4
935.142,-10,-6,5,1
935.142,-15,-16,-3,-2
935.143,-17,-23,-10,-3
935.143,-10,-15,-4,7
935.144,4,-5,-1,13
935.144,16,3,-3,9
935.145,17,3,-11,-6
935.146,3,-4,-18,-13
935.146,-2,-4,-13,-8
935.147,4,6,2,3
935.147,12,20,20,14
935.148,15,24,25,13
935.149,6,15,23,14
935.149,3,10,21,17
935.15,4,4,10,8
935.15,0,-4,-2,0
935.151,-4,-13,-13,-6
935.151,-4,-12,-15,-6
935.152,1,-2,-8,-3
935.153,9,11,2,3
935.153,14,21,19,13
935.154,14,19,17,10
935.154,6,9,10,2
935.155,-2,2,6,-3
935.155,-16,-13,-5,-15
935.156,-28,-25,-17,-23
935.157,-28,-17,-8,-13
935.157,-16,-7,0,0
935.158,-2,2,10,14
935.158,11,11,16,19
935.159,17,12,13,15
935.159,14,10,8,10
935.16,11,5,0,7
935.161,12,2,-7,0
935.161,11,3,-9,-3
935.162,10,8,-1,0
935.162,8,9,6,5
935.163,8,13,14,10
935.164,11,16,15,10
935.164,12,15,11,5
935.165,4,1,-1,0
935.165,-2,-8,-11,-6
935.166,-1,-6,-10,-4
935.166,2,0,-7,-4
935.167,5,7,-1,-2
935.168,7,6,-4,-5
935.168,5,5,-6,-10
935.169,0,3,-5,-8
935.169,-3,-5,-9,-5
935.17,-3,-8,-6,2
935.17,5,1,9,19
935.171,10,0,12,26
935.172,12,-4,6,24
935.172,16,0,5,20
935.173,22,13,8,13
935.173,16,12,2,2
935.174,7,1,-11,-10
935.174,0,-5,-21,-17
935.175,-1,-1,-15,-17
935.175,-4,0,-4,-8
935.176,-5,-2,-1,-1
935.177,0,5,13,15
935.177,14,18,27,30
935.178,24,22,29,27
935.179,16,16,24,17
935.179,-1,-6,0,1
935.18,-7,-11,-2,4
935.18,1,1,11,11
935.181,-1,-8,-4,-3
935.181,-10,-21,-26,-20
935.182,-14,-20,-29,-22
935.182,-6,-3,-13,-11
935.183,7,21,16,2
935.184,8,28,26,0
935.184,-2,17,17,-5
935.185,-8,11,15,0
935.185,-5,2,0,-5
935.186,-3,1,0,-2
935.186,2,7,6,8
935.187,13,11,2,6
935.188,15,10,2,6
935.188,14,6,-3,2
935.189,7,0,-8,-5
935.189,0,-2,-1,-1
935.19,-5,-5,1,2
935.19,-1,0,8,12
935.191,11,16,22,17
935.192,9,13,19,9
935.192,-2,2,16,14
935.193,-4,-8,8,13
935.193,-4,-15,-6,-1
935.194,-8,-12,-11,-9
935.195,-9,-8,-7,-7
935.195,-4,-5,-7,-3
935.196,3,1,-6,-1
935.196,10,12,5,10
935.197,21,14,4,14
935.197,24,10,-2,11
935.198,20,4,-5,9
935.199,17,2,-5,6
935.199,15,4,-4,3
935.2,14,7,-5,-1
935.2,5,0,-5,-1
935.201,2,-3,-6,0
935.201,6,2,-4,-1
935.202,9,12,1,-1
935.203,9,12,-3,-14
935.203,-6,0,-9,-22
935.204,-17,-7,-7,-12
935.204,-10,1,17,21
935.205,10,11,26,29
935.205,13,10,22,20
935.206,3,1,14,9
935.206,-6,-5,7,4
935.207,-10,-8,4,2
935.208,-10,-13,-4,-1
935.208,-5,-5,-3,-2
935.209,0,6,6,2
935.209,9,15,9,2
935.21,12,20,13,7
935.211,14,21,14,7
935.211,10,9,2,0
935.212,5,0,-6,-4
935.212,0,-7,-11,-4
935.213,-2,-17,-23,-6
935.213,-3,-30,-37,-5
935.214,12,-7,-10,19
935.215,35,18,6,19
935.215,30,22,9,9
935.216,19,19,8,4
935.216,10,9,1,1
935.217,3,-6,-12,-8
935.217,-4,-13,-18,-8
935.218,-2,-1,0,3
935.219,1,4,9,4
935.219,0,4,7,0
935.22,-6,0,4,-2
935.22,-4,5,6,0
935.221,3,18,18,1
935.221,0,19,25,8
935.222,3,22,35,21
935.223,5,21,39,21
935.223,-2,5,18,5
935.224,-12,-9,-6,-17
935.224,-25,-19,-18,-26
935.225,-27,-19,-13,-17
935.225,-17,-5,3,-2
935.226,-7,6,20,14
935.227,1,2,10,12
935.227,4,-4,-3,7
935.228,10,-1,-7,9
935.228,17,3,-1,13
935.229,18,3,0,14
935.229,18,4,-3,5
935.23,10,1,-6,-2
935.231,4,3,-4,-3
935.231,5,6,1,0
935.232,3,6,4,2
935.232,3,4,4,6
935.233,9,9,8,11
935.234,19,20,17,15
935.234,17,9,1,4
935.235,7,-5,-13,-1
935.235,5,-6,-11,0
935.236,6,-1,-6,-2
935.236,2,-1,-6,-4
935.237,2,0,-7,-4
935.238,2,-2,-15,-12
935.238,0,-1,-16,-13
935.239,3,6,-8,-10
935.239,5,9,-3,-6
935.24,3,2,-8,-8
935.24,2,8,6,7
935.241,14,17,14,11
935.242,16,29,31,17
935.242,12,27,39,29
935.243,10,11,28,26
935.243,4,4,27,25
935.244,-3,-11,5,3
935.245,-19,-24,-13,-12
935.245,-22,-23,-20,-24
935.246,-24,-16,-16,-25
935.246,-19,0,1,-10
935.247,0,26,28,10
935.247,16,35,28,9
935.248,8,17,10,0
935.248,-5,-13,-16,-6
935.249,-8,-28,-26,1
935.25,4,-19,-20,11
935.25,18,1,4,26
935.251,27,10,10,22
935.251,19,4,-1,4
935.252,9,6,1,5
935.253,13,10,3,10
935.253,18,8,-5,0
935.254,11,7,-5,-4
935.254,8,9,0,0
935.255,8,7,-2,-2
935.255,5,9,2,-2
935.256,-1,-2,-7,-8
935.256,-6,-3,1,2
935.257,-4,-3,14,18
935.258,-2,-11,11,23
935.258,3,-8,10,20
935.259,2,-14,-11,-7
935.259,-6,-6,-10,-13
935.26,-6,3,-1,-8
935.261,2,14,10,5
935.261,14,25,19,7
935.262,10,22,21,5
935.262,-1,9,18,9
935.263,-1,-1,0,-5
935.263,-4,0,-3,-9
935.264,-8,-2,-3,-9
935.265,-7,0,-1,-5
935.265,2,12,4,-1
935.266,10,18,6,5
935.266,17,16,-1,0
935.267,13,8,-11,-12
935.267,0,0,-14,-12
935.268,0,4,3,9
935.269,13,16,25,29
935.269,18,13,28,30
935.27,7,-3,10,10
935.27,-10,-16,-3,-5
935.271,-21,-23,-9,-6
935.271,-15,-27,-31,-27
935.272,-21,-22,-29,-26
935.273,-10,-1,-4,0
935.273,17,17,5,15
935.274,35,31,12,16
935.274,34,34,21,16
935.275,25,32,31,24
935.275,18,18,21,17
935.276,6,6,12,8
935.277,-6,-9,0,-3
935.277,-19,-21,-9,-10
935.278,-21,-14,5,1
935.278,-12,-6,8,0
935.279,-17,-11,3,-1
935.28,-13,-10,-2,0
935.28,0,1,0,4
935.281,11,9,1,2
935.281,10,7,-2,-1
935.282,4,0,-4,3
935.282,11,5,3,13
935.283,20,11,4,9
935.284,14,12,6,2
935.284,7,11,5,0
935.285,4,9,2,-2
935.285,3,10,8,1
935.286,2,8,6,-2
935.286,-3,6,8,-1
935.287,-7,0,4,1
935.288,-3,-5,-6,-1
935.288,-2,-9,-8,1
935.289,3,-6,-4,7
935.289,5,-6,-5,7
935.29,7,-9,-14,5
935.29,12,-9,-17,9
935.291,24,8,-1,13
935.292,28,23,10,11
935.292,19,20,14,7
935.293,4,5,2,-2
935.293,-4,-8,-15,-18
935.294,-13,-12,-19,-20
935.294,-13,-8,-9,-8
935.295,-2,4,9,13
935.296,17,16,15,22
935.296,27,23,18,22
935.297,27,24,18,16
935.297,11,7,7,5
935.298,-6,-14,-8,-6
935.298,-16,-19,-10,-4
935.299,-9,-11,-6,-1
935.3,1,-1,-7,-5
935.3,1,-3,-16,-13
935.301,0,0,-12,-8
935.301,8,11,-2,2
935.302,22,23,3,0
935.302,24,38,19,6
935.303,21,39,27,4
935.304,9,30,27,2
935.304,-4,18,33,11
935.305,-12,2,27,11
935.305,-22,-20,0,-10
935.306,-36,-30,-7,-12
935.307,-34,-28,-3,0
935.307,-18,-19,0,10
935.308,0,-9,-2,12
935.308,12,1,0,10
935.309,12,2,-2,3
935.309,7,-3,-11,-4
935.31,2,-3,-8,-1
935.311,5,-1,-3,8
935.311,14,5,0,12
935.312,22,19,16,20
935.312,24,21,18,18
935.313,16,13,9,7
935.313,7,5,1,1
935.314,6,5,0,0
935.315,3,4,0,-2
935.315,0,0,-2,-5
935.316,-2,-1,-6,-8
935.316,-3,0,-2,-6
935.317,-3,2,1,-4
935.317,-2,2,0,-4
935.318,-3,-1,-2,-2
935.319,0,0,0,4
935.319,7,3,-1,2
935.32,7,2,-3,0
935.32,6,1,-5,0
935.321,9,6,-2,1
935.321,11,10,2,1
935.322,11,15,9,7
935.323,14,20,12,7
935.323,14,19,8,0
935.324,8,18,13,5
935.324,9,14,10,3
935.325,2,2,-3,-8
935.326,-7,-6,-12,-18
935.326,-16,-11,-13,-19
935.327,-15,-4,0,-4
935.327,-7,3,15,11
935.328,0,2,19,19
935.328,4,1,16,17
935.329,4,-4,-3,-2
935.329,-3,-5,-6,0
935.33,1,-6,-10,6
935.331,9,-12,-18,4
935.331,12,-6,-14,4
935.332,20,13,4,11
935.332,23,26,23,21
935.333,19,22,28,24
935.333,9,5,18,17
935.334,-2,-5,9,6
935.335,-12,-12,2,-4
935.335,-21,-15,-2,-9
935.336,-22,-17,-6,-8
935.336,-13,-8,0,3
935.337,3,4,7,9
935.337,10,8,3,3
935.338,7,3,-4,-6
935.339,-3,-4,-9,-8
935.339,-3,-3,-5,-2
935.34,4,6,3,5
935.34,12,14,16,18
935.341,18,17,16,17
935.341,14,7,2,5
935.342,9,3,0,3
935.343,10,10,4,2
935.343,9,12,5,-1
935.344,3,9,3,-3
935.344,0,7,1,-6
935.345,-2,3,-1,-8
935.346,-5,0,0,-6
935.346,-3,2,1,-1
935.347,-1,2,1,-1
935.347,-1,-1,-3,-4
935.348,-3,-3,-4,-2
935.348,-1,-1,0,3
935.349,5,3,3,8
935.35,9,6,7,11
935.35,10,5,5,9
935.351,7,0,0,7
935.351,6,-1,0,8
935.352,8,2,2,8
935.352,8,4,4,7
935.353,8,5,2,3
935.354,5,5,1,0
935.354,0,0,-3,-3
935.355,-1,-1,-4,-2
935.355,2,2,-1,0
935.356,4,4,0,1
935.357,6,6,1,0
935.357,4,4,0,0
935.358,2,0,-2,-1
935.358,2,2,1,3
935.359,6,4,3,7
935.359,9,4,2,6
935.36,7,2,0,3
935.36,4,2,0,3
935.361,5,4,5,5
935.362,8,9,7,4
935.362,5,9,9,2
935.363,1,6,6,-1
935.363,-3,3,4,-1
935.364,-1,6,7,0
935.364,2,8,8,2
935.365,2,7,5,0
935.366,2,3,1,0
935.366,0,-1,-4,-2
935.367,0,-1,-2,0
935.367,4,2,-1,-1
935.368,0,-1,-2,-2
935.368,-2,-2,-1,0
935.369,0,0,4,6
935.37,3,0,4,8
935.37,4,0,2,8
935.371,6,0,3,11
935.371,9,2,3,9
935.372,11,7,4,7
935.372,8,6,4,5
935.373,5,4,2,2
935.374,4,3,1,1
935.374,1,1,-1,-1
935.375,0,0,-2,-2
935.375,0,1,-1,0
935.376,3,2,0,2
935.377,5,5,4,4
935.377,5,4,3,3
935.378,1,0,0,0
935.378,0,0,0,0
935.379,1,0,1,5
935.379,5,3,3,7
935.38,7,3,3,6
935.381,6,3,2,4
935.381,3,2,2,2
935.382,2,3,4,4
935.382,6,10,8,3
935.383,6,12,9,1
935.383,2,11,7,-1
935.384,0,9,6,-4
935.385,-3,6,5,-4
935.385,-4,3,3,-3
935.386,-3,2,1,-3
935.386,-2,1,1,-2
935.387,0,1,1,0
935.387,0,1,1,2
935.388,1,0,0,3
935.389,1,0,1,5
935.389,2,-1,1,6
935.39,4,-3,0,7
935.39,6,-3,-2,7
935.391,6,-1,-1,7
935.392,9,5,6,11
935.392,12,7,6,8
935.393,9,5,1,3
935.393,6,3,0,0
935.394,4,3,-1,-2
935.394,2,3,0,-1
935.395,2,4,2,0
935.396,2,3,2,1
935.396,2,2,2,2
935.397,2,2,3,3
935.397,2,1,1,2
935.398,1,0,1,2
935.398,2,0,2,4
935.399,2,0,0,2
935.4,1,-1,-1,3
935.4,3,0,0,4
935.401,6,4,2,6
935.401,10,10,7,8
935.402,11,12,6,4
935.402,10,13,5,0
935.403,4,11,4,-3
935.404,1,8,4,-4
935.404,0,7,3,-5
935.405,-1,4,2,-5
935.405,-5,0,1,-4
935.406,-6,-1,0,-4
935.406,-4,1,3,0
935.407,-1,4,6,2
935.408,0,3,9,6
935.408,0,1,8,7
935.409,0,-1,3,7
935.409,2,-2,0,7
935.41,3,-3,0,7
935.41,4,-3,0,9
935.411,5,-2,0,9
935.412,9,2,2,6
935.412,8,5,2,4
935.413,6,4,0,0
935.413,3,1,-4,-3
935.414,5,5,-1,0
935.414,7,7,0,-1
935.415,4,5,0,0
935.416,2,1,-2,0
935.416,2,1,0,1
935.417,3,5,5,5
935.417,4,5,8,7
935.418,3,3,6,5
935.419,2,1,4,6
935.419,2,0,2,6
935.42,3,0,0,2
935.42,3,0,-3,1
935.421,5,3,0,2
935.421,7,7,4,2
935.422,8,10,6,2
935.423,7,13,8,0
935.423,6,15,9,0
935.424,5,16,11,-2
935.424,0,9,5,-5
935.425,-5,3,0,-8
935.425,-7,0,-1,-8
935.426,-9,-4,-4,-5
935.427,-7,-6,-5,-3
935.427,-3,-2,1,2
935.428,0,0,4,6
935.428,1,0,4,8
935.429,6,5,7,9
935.429,8,5,7,10
935.43,6,1,4,9
935.431,5,-3,0,8
935.431,4,-6,-3,7
935.432,9,1,2,8
935.432,10,6,6,9
935.433,9,5,2,7
935.433,12,8,2,4
935.434,11,7,-1,-1
935.435,3,1,-4,-3
935.435,0,-2,-6,-3
935.436,0,-1,-4,-2
935.436,1,1,-1,0
935.437,2,3,2,1
935.438,2,2,2,1
935.438,0,0,1,1
935.439,0,0,0,3
935.439,3,0,1,4
935.44,5,3,2,6
935.44,8,5,3,7
935.441,9,7,6,8
935.441,11,11,8,8
935.442,10,11,9,5
935.443,6,10,9,3
935.443,2,6,6,-2
935.444,-5,0,0,-9
935.444,-9,-3,-3,-8
935.445,-7,-1,-1,-6
935.445,-3,2,2,0
935.446,-1,3,4,2
935.447,1,5,7,6
935.447,8,10,11,8
935.448,5,3,4,8
935.448,5,-2,-3,6
935.449,13,2,-3,5
935.449,12,2,-3,1
935.45,2,-5,-5,1
935.451,-2,-10,-7,-2
935.451,-3,-6,-5,-2
935.452,-2,2,6,3
935.452,5,11,10,10
935.453,18,21,10,10
935.453,24,26,9,2
935.454,8,11,1,-6
935.455,-3,0,-3,-5
935.455,-3,-3,-3,-5
935.456,-8,-6,0,-3
935.456,-13,-8,4,4
935.457,-7,-3,9,12
935.458,5,1,6,8
935.458,8,5,3,3
935.459,4,3,2,2
935.459,2,3,3,4
935.46,6,7,7,4
935.46,1,2,4,3
935.461,-1,-2,1,3
935.462,1,1,3,6
935.462,7,12,13,10
935.463,10,13,10,7
935.463,6,6,3,1
935.464,5,7,0,-1
935.464,5,6,-2,-2
935.465,10,11,-1,-7
935.466,1,8,0,-9
935.466,-6,3,0,-4
935.467,0,6,0,-8
935.467,-1,5,-1,-9
935.468,-5,1,-1,-6
935.469,-2,0,-1,-4
935.469,-5,-4,-1,1
935.47,0,-1,3,7
935.47,5,2,7,11
935.471,8,6,11,10
935.471,2,4,13,13
935.472,6,5,9,15
935.472,20,18,7,7
935.474,17,14,0,-5
935.474,0,3,-3,-11
935.474,-14,-8,-5,-11
935.475,-16,-10,-4,-5
935.475,-6,-5,-2,6
935.476,17,13,1,10
935.476,28,21,1,2
935.477,18,18,2,-6
935.478,-2,3,1,-4
935.478,-3,0,0,0
935.479,2,2,-1,-4
935.479,-3,1,3,-4
935.48,-14,-7,7,4
935.481,-6,0,16,13
935.481,3,8,16,10
935.482,5,10,13,0
935.482,-7,5,14,-3
935.483,-21,-5,16,6
935.483,-10,0,18,13
935.484,2,5,10,7
935.485,7,8,6,5
935.485,10,10,5,4
935.486,8,7,4,13
935.486,24,14,-1,12
935.487,41,27,-11,-14
935.487,8,6,-20,-33
935.488,-25,-15,-15,-20
935.489,-18,-9,-3,-2
935.489,-2,-3,-5,-5
935.49,-5,-5,-7,-10
935.49,-14,-10,-1,3
935.491,1,3,11,12
935.491,5,9,19,15
935.492,1,3,15,15
935.493,1,-3,5,16
935.493,17,8,6,19
935.494,30,23,14,17
935.494,22,18,11,11
935.495,8,2,-2,-1
935.495,-2,-11,-14,-13
935.496,-14,-12,-6,-10
935.497,-17,-10,2,-1
935.497,-10,-2,8,3
935.498,-8,-4,4,-2
935.498,-9,-2,7,9
935.499,16,20,13,18
935.499,39,40,17,7
935.5,19,18,1,1
935.501,11,2,-12,-2
935.501,12,-1,-19,-5
935.502,15,8,-13,-8
935.502,12,12,-4,-6
935.503,11,17,3,-3
935.503,9,16,0,-10
935.504,-1,5,-7,-17
935.505,-10,-5,-12,-18
935.505,-14,-6,-6,-18
935.506,-28,-17,0,-1
935.506,-15,-12,5,9
935.507,0,-1,9,15
935.508,12,9,14,14
935.508,7,7,18,19
935.509,10,11,21,23
935.509,15,15,20,17
935.51,10,10,14,7
935.51,-3,-1,6,4
935.511,-5,-2,5,3
935.511,-3,0,6,3
935.512,-3,0,3,2
935.513,3,3,-1,-3
935.513,4,5,-4,-10
935.514,-9,-6,-6,-6
935.514,-11,-14,-7,0
935.515,-4,-14,-8,12
935.516,16,-1,-6,13
935.516,26,9,-2,10
935.517,22,12,2,10
935.517,16,9,3,7
935.518,6,1,1,6
935.518,6,2,3,6
935.519,5,3,3,0
935.52,-5,-6,0,-1
935.52,-10,-9,0,1
935.521,-7,-8,2,6
935.521,2,0,5,3
935.522,0,3,8,4
935.522,-2,2,10,12
935.523,12,12,9,15
935.524,27,21,5,9
935.524,28,21,-2,-2
935.525,16,13,-6,-10
935.525,1,0,-10,-8
935.526,3,0,-12,-9
935.526,4,3,-10,-12
935.527,1,7,-3,-11
935.528,-6,1,1,-3
935.528,-3,-1,0,0
935.529,-2,-4,0,2
935.529,-3,-6,-1,3
935.53,-2,-6,2,7
935.53,0,-3,6,12
935.531,5,0,9,14
935.532,8,4,11,14
935.532,6,3,9,10
935.533,2,2,7,9
935.533,1,1,8,8
935.534,2,0,4,6
935.535,3,0,-1,3
935.535,7,2,-2,2
935.536,11,6,-4,0
935.536,9,7,-2,-2
935.537,5,8,2,0
935.537,3,0,-4,0
935.538,3,-4,-12,-4
935.539,5,0,-8,0
935.539,9,3,-4,5
935.54,14,7,0,5
935.54,10,7,4,9
935.541,12,8,6,10
935.541,11,8,6,6
935.542,4,3,6,7
935.542,6,5,8,8
935.543,6,2,0,0
935.544,0,0,-2,-8
935.544,-12,-6,0,-9
935.545,-20,-9,4,0
935.545,-11,-4,6,6
935.546,2,1,1,2
935.547,2,-4,-5,0
935.547,2,-2,0,4
935.548,6,6,10,8
935.548,1,2,10,15
935.549,12,8,8,14
935.549,18,10,5,12
935.55,19,12,5,6
935.551,10,8,4,2
935.551,0,-2,-3,-2
935.552,-2,-5,-6,-8
935.552,-15,-18,-10,0
935.553,-1,-5,0,11
935.553,19,16,12,12
935.554,16,17,11,5
935.555,9,10,2,-1
935.555,1,3,0,-4
935.556,-3,0,-1,-5
935.556,-8,-4,-1,-5
935.557,-9,-4,0,-1
935.557,-4,-2,1,2
935.558,0,0,3,6
935.559,5,3,4,6
935.559,4,0,0,5
935.56,3,-4,-4,2
935.56,3,0,0,4
935.561,4,0,1,11
935.561,13,4,1,14
935.562,23,16,8,10
935.563,13,12,8,5
935.563,8,15,10,0
935.564,2,13,10,1
935.564,7,15,7,-4
935.565,0,3,-3,-14
935.565,-15,-9,-7,-9
935.566,-9,-6,-6,-4
935.567,-4,-5,-5,1
935.567,2,-4,-6,4
935.568,8,1,-2,4
935.568,9,5,3,6
935.569,8,7,6,6
935.57,3,2,4,9
935.57,7,2,2,7
935.571,6,0,1,6
935.571,6,0,0,4
935.572,4,1,2,5
935.572,3,0,2,6
935.573,4,1,4,6
935.574,7,10,12,11
935.574,14,13,6,13
935.575,31,21,-4,-2
935.575,20,14,-13,-17
935.576,-4,-2,-13,-17
935.576,-12,-8,-11,-14
935.577,-13,-7,-6,-8
935.578,-8,-3,1,-1
935.578,-3,2,8,6
935.579,2,3,8,8
935.579,5,5,8,7
935.58,4,6,9,8
935.581,5,8,12,10
935.581,6,6,10,8
935.582,0,-3,2,7
935.582,4,0,1,3
935.583,3,3,3,1
935.583,1,4,5,2
935.584,3,7,7,4
935.585,5,7,6,4
935.585,2,0,-3,-2
935.586,-2,-8,-11,-6
935.586,-2,-1,-3,0
935.587,4,7,6,5
935.587,9,11,11,7
935.588,8,9,9,5
935.588,1,1,4,4
935.589,0,-3,-3,2
935.59,3,-2,-1,2
935.59,3,0,1,4
935.591,1,-1,0,4
935.591,1,0,3,7
935.592,4,3,6,6
935.592,6,5,6,7
935.593,7,7,8,7
935.594,7,10,7,4
935.594,5,5,1,-1
935.595,1,3,-2,-3
935.595,1,4,0,-3
935.596,1,6,3,-1
935.596,0,1,-2,-4
935.597,-1,0,-3,-4
935.598,0,1,0,-2
935.598,0,1,-1,-2
935.599,0,-1,-1,-1
935.599,0,1,1,2
935.6,1,3,5,5
935.6,5,5,7,8
935.601,9,10,9,8
935.602,10,13,11,7
935.602,9,13,9,4
935.603,6,10,7,2
935.603,4,10,5,-1
935.604,1,5,0,-7
935.604,-3,0,-3,-6
935.605,-1,0,-4,-5
935.606,-1,-1,-5,-5
935.606,0,3,1,0
935.607,1,7,4,0
935.607,-1,0,1,-1
935.608,-7,-6,1,4
935.609,-1,-1,7,13
935.609,11,7,9,12
935.61,12,8,4,2
935.61,-2,-3,2,7
935.611,3,0,4,15
935.611,22,17,8,8
935.612,10,6,0,-2
935.613,-4,-3,-3,-2
935.613,-1,-1,0,3
935.614,4,4,2,2
935.614,4,3,2,0
935.615,1,3,1,-1
935.615,0,0,1,0
935.616,-2,-2,0,1
935.617,0,0,3,3
935.617,1,1,4,5
935.618,2,0,0,2
935.618,3,0,0,3
935.619,5,3,2,5
935.619,8,5,2,6
935.62,9,6,3,4
935.621,6,4,2,3
935.621,5,3,3,4
935.622,4,6,6,5
935.622,5,7,5,3
935.623,4,4,2,1
935.624,3,6,3,0
935.624,1,5,3,0
935.625,0,2,2,0
935.625,-1,0,0,0
935.626,-1,-4,-5,-1
935.626,0,-7,-6,1
935.627,5,4,2,5
935.628,6,7,7,6
935.628,5,4,5,7
935.629,4,1,2,5
935.629,5,0,0,4
935.63,2,-2,-1,4
935.63,2,-4,-2,4
935.631,0,-7,-2,10
935.632,9,1,2,17
935.632,25,15,6,12
935.633,22,16,3,5
935.633,16,13,-1,-2
935.634,5,3,-5,-8
935.634,-2,-1,-7,-9
935.635,-5,-4,-7,-8
935.636,-4,-3,-4,-4
935.636,0,0,-1,-1
935.637,0,0,0,0
935.637,-1,1,5,4
935.638,0,2,8,9
935.638,4,3,8,9
935.639,1,0,7,9
935.64,3,1,7,7
935.64,0,1,7,6
935.641,0,1,6,11
935.641,14,11,6,10
935.642,20,19,6,1
935.642,7,10,3,2
935.643,13,13,0,-3
935.644,9,10,-4,-13
935.644,-9,-4,-7,-11
935.645,-7,-1,-2,-6
935.645,-4,0,0,-3
935.646,-2,2,2,-1
935.646,0,3,2,0
935.647,-1,0,2,3
935.648,1,0,0,5
935.648,5,0,0,5
935.649,6,0,0,4
935.649,4,0,1,6
935.65,6,2,3,8
935.65,7,4,6,8
935.651,7,5,6,8
935.652,6,5,6,6
935.652,6,6,6,5
935.653,3,2,4,3
935.653,2,1,2,1
935.654,0,-1,-1,0
935.654,-2,-5,-2,0
935.655,2,0,2,3
935.656,4,6,4,3
935.656,2,4,5,3
935.657,3,3,2,2
935.657,3,2,1,2
935.658,3,2,0,2
935.659,4,5,3,2
935.659,5,7,4,3
935.66,4,6,3,2
935.66,3,4,1,0
935.661,1,3,0,-2
935.661,0,2,0,-1
935.662,-1,-1,0,0
935.663,0,-2,-1,2
935.663,5,4,1,4
935.664,8,8,5,4
935.664,7,9,6,3
935.665,6,10,8,5
935.665,9,14,9,4
935.666,10,14,5,-3
935.667,-2,1,0,-7
935.667,-8,-4,-3,-5
935.668,-6,-3,-3,-3
935.668,-3,-5,-3,0
935.669,-1,-7,-4,4
935.669,3,-7,-5,9
935.67,11,0,-1,12
935.671,18,10,4,12
935.671,18,12,6,9
935.672,13,10,6,7
935.672,7,7,5,3
935.673,0,-1,0,0
935.674,-4,-5,-1,-2
935.674,-6,-6,0,1
935.675,-2,-1,4,6
935.675,4,4,7,8
935.676,6,6,6,5
935.676,4,3,3,1
935.677,0,0,2,1
935.678,0,-1,2,1
935.678,-2,0,3,3
935.679,0,0,3,4
935.679,2,0,2,5
935.68,5,4,3,6
935.68,8,6,5,7
935.681,12,11,6,8
935.682,17,15,5,5
935.682,15,15,0,-3
935.683,8,9,-3,-7
935.683,4,8,-3,-10
935.684,-2,2,-3,-9
935.684,-6,-1,-3,-10
935.685,-11,-7,-6,-9
935.686,-11,-6,0,-2
935.686,-6,-2,6,5
935.687,-1,0,9,9
935.687,2,2,10,13
935.688,12,9,10,13
935.688,13,9,6,9
935.689,10,5,2,7
935.69,8,3,0,5
935.69,6,0,-2,2
935.691,4,0,-3,0
935.691,5,3,1,3
935.692,5,7,5,2
935.692,4,7,6,1
935.693,0,2,2,0
935.694,-2,-1,0,0
935.694,-1,-3,-2,0
935.695,0,-1,-1,1
935.695,3,3,3,3
935.696,5,7,5,3
935.696,3,5,4,2
935.697,1,4,4,2
935.698,1,4,4,2
935.698,3,5,3,2
935.699,3,1,0,1
935.699,0,-3,-3,1
935.7,3,-1,-2,1
935.7,2,0,2,5
935.701,5,5,5,6
935.702,7,9,8,4
935.702,4,10,11,3
935.703,0,4,9,4
935.703,0,3,7,3
935.704,2,5,4,6
935.704,12,11,2,6
935.705,23,22,2,-6
935.706,2,4,-4,-13
935.706,-14,-9,-8,-12
935.707,-18,-15,-7,-5
935.707,-10,-10,-2,3
935.708,4,1,3,13
935.708,20,13,7,12
935.709,17,7,0,7
935.71,13,0,-8,3
935.71,12,3,-4,-2
935.711,1,0,0,3
935.711,2,3,7,10
935.712,8,6,9,10
935.712,6,3,2,4
935.713,3,1,0,1
935.714,0,0,1,2
935.714,4,5,7,5
935.715,7,9,7,3
935.715,2,3,1,-1
935.716,-1,-1,-2,-4
935.716,-2,0,-1,-2
935.717,-1,0,1,1
935.718,0,0,1,1
935.718,0,-1,0,0
935.719,0,-1,0,3
935.719,1,0,2,6
935.72,6,3,4,8
935.721,9,6,5,7
935.721,7,8,6,4
935.722,6,7,6,4
935.722,6,9,7,3
935.723,4,8,5,1
935.723,4,6,4,1
935.724,0,3,2,0
935.725,1,2,1,0
935.725,1,1,0,0
935.726,0,0,-1,-1
935.726,0,1,0,0
935.727,1,1,1,2
935.727,1,0,0,1
935.728,0,-1,0,1
935.729,2,0,1,5
935.729,5,2,2,6
935.73,6,4,4,8
935.73,7,5,4,6
935.731,6,5,4,5
935.731,4,4,3,4
935.732,5,4,2,3
935.733,4,3,1,1
935.733,1,1,0,1
935.734,1,0,1,2
935.734,2,1,1,2
935.735,2,1,1,3
935.736,6,5,2,2
935.736,3,3,1,1
935.737,2,2,0,1
935.737,5,3,-2,-3
935.738,0,0,-2,-2
935.738,-1,0,0,1
935.739,3,1,0,4
935.74,8,5,0,2
935.74,9,8,1,0
935.741,6,7,4,3
935.741,5,7,7,4
935.742,5,9,10,5
935.742,4,6,6,2
935.743,0,4,4,0
935.744,-2,2,4,1
935.744,0,4,5,1
935.745,0,4,5,1
935.745,0,2,2,0
935.746,0,0,0,0
935.746,-1,0,0,0
935.747,1,1,1,3
935.748,4,2,2,3
935.748,2,1,1,2
935.749,0,0,0,3
935.749,1,0,2,5
935.75,3,0,1,8
935.75,6,2,3,8
935.751,8,5,3,7
935.752,8,6,4,7
935.752,10,9,4,7
935.753,14,11,3,2
935.753,9,8,-1,-3
935.754,2,0,-5,-5
935.755,-3,-3,-6,-6
935.755,-3,-3,-4,-3
935.756,-2,-1,-1,0
935.756,1,2,2,2
935.757,3,3,3,3
935.757,4,3,2,2
935.758,2,1,2,2
935.758,0,0,1,5
935.759,9,6,3,5
935.76,10,8,4,4
935.76,6,4,3,3
935.761,4,4,4,3
935.761,3,4,3,2
935.762,3,5,6,3
935.763,4,7,6,3
935.763,4,7,5,1
935.764,4,7,4,0
935.764,1,4,2,-2
935.765,-2,1,1,-1
935.765,-2,-2,0,0
935.766,0,-1,0,2
935.767,2,1,2,2
935.767,2,1,1,1
935.768,1,0,0,2
935.768,1,0,0,4
935.769,5,2,1,4
935.769,5,1,0,2
935.77,4,0,0,2
935.771,3,1,2,5
935.771,7,6,7,7
935.772,7,7,9,9
935.772,7,6,7,6
935.773,3,2,3,2
935.773,-1,-2,-1,1
935.774,0,-2,-1,4
935.775,4,0,0,5
935.775,8,4,0,4
935.776,9,4,-1,0
935.776,5,1,-1,2
935.777,10,10,2,2
935.778,8,8,2,-1
935.778,2,2,-2,-2
935.779,0,1,-1,-2
935.779,1,3,0,-1
935.78,0,1,1,0
935.78,-1,-1,-1,0
935.781,0,0,3,3
935.781,3,9,11,5
935.782,4,10,13,6
935.783,2,8,9,3
935.783,1,6,7,1
935.784,0,1,2,2
935.784,2,0,-3,1
935.785,6,0,-6,-1
935.785,3,0,-3,0
935.786,5,3,1,4
935.787,8,6,3,3
935.787,6,7,4,1
935.788,2,4,5,1
935.788,1,3,3,0
935.789,0,3,4,0
935.789,-2,-3,0,1
935.79,0,-6,-3,4
935.791,4,-2,-1,6
935.791,7,3,4,9
935.792,9,6,7,8
935.792,7,5,6,6
935.793,5,5,5,5
935.794,4,3,3,2
935.794,1,0,0,0
935.795,-1,-1,-1,0
935.795,0,0,0,2
935.796,2,1,1,3
935.796,4,2,1,2
935.797,3,1,0,2
935.798,3,1,0,3
935.798,5,3,0,3
935.799,6,5,3,4
935.799,5,5,4,2
935.8,3,3,2,1
935.8,1,2,3,1
935.801,1,3,3,3
935.802,4,6,4,3
935.802,6,8,5,1
935.803,3,6,4,0
935.803,1,5,3,0
935.804,0,3,3,0
935.804,1,2,1,1
935.805,1,0,0,0
935.806,1,2,3,3
935.806,3,4,3,2
935.807,2,4,2,1
935.807,0,1,1,3
935.808,6,3,0,4
935.808,11,7,0,0
935.809,5,2,-1,-1
935.81,1,-1,-3,0
935.81,1,-4,-4,1
935.811,-1,-8,-4,4
935.811,4,0,3,12
935.812,15,12,9,9
935.812,9,9,9,6
935.813,2,2,6,5
935.814,0,-1,2,3
935.814,-1,-1,1,2
935.815,0,0,1,2
935.815,1,2,3,5
935.816,6,6,5,7
935.816,9,7,2,6
935.817,10,7,-1,-2
935.818,3,3,-2,-4
935.818,0,2,-1,-1
935.819,0,2,0,2
935.819,7,4,-2,0
935.82,6,5,-1,-2
935.82,2,3,0,0
935.821,3,5,3,4
935.822,12,15,6,4
935.822,12,15,4,-2
935.823,1,4,1,-5
935.823,-5,0,1,-3
935.824,-4,0,2,-1
935.824,-1,2,2,0
935.825,0,1,3,1
935.826,3,4,3,3
935.826,5,5,4,3
935.827,4,4,4,2
935.827,-1,-1,1,0
935.828,-7,-6,0,2
935.828,-3,-5,3,7
935.829,4,1,6,10
935.83,5,2,5,10
935.83,7,2,5,11
935.831,9,4,4,9
935.831,9,6,6,9
935.832,8,6,5,7
935.833,7,5,3,3
935.833,5,4,1,1
935.834,2,1,-1,0
935.834,2,1,-1,-2
935.835,0,0,-1,-1
935.835,0,0,-2,-1
935.836,0,-1,-1,-1
935.837,-1,0,0,1
935.837,1,0,0,1
935.838,1,1,2,3
935.838,3,1,3,5
935.839,5,4,4,5
935.839,6,5,3,4
935.84,6,5,2,4
935.841,6,6,4,5
935.841,6,6,4,2
935.842,5,5,3,2
935.842,6,8,5,1
935.843,4,8,5,0
935.844,1,5,4,0
935.844,0,3,2,0
935.845,0,2,1,0
935.845,0,1,0,0
935.846,0,1,1,0
935.846,0,1,1,0
935.847,1,1,1,1
935.848,2,1,1,2
935.848,2,1,1,4
935.849,4,1,1,4
935.849,5,1,1,6
935.85,7,3,1,5
935.85,7,2,1,5
935.851,7,5,2,5
935.852,8,7,4,4
935.852,6,6,2,1
935.853,4,5,2,1
935.853,3,4,2,0
935.854,1,2,0,-2
935.854,-2,-2,-2,-1
935.855,-3,-4,-2,0
935.856,0,-2,0,2
935.856,2,1,3,4
935.857,3,3,4,8
935.857,8,2,1,6
935.858,9,3,0,5
935.858,7,6,3,3
935.859,4,4,2,2
935.859,2,2,2,2
935.86,5,5,3,1
935.861,2,3,3,0
935.861,0,2,4,1
935.862,-1,3,6,3
935.862,1,6,8,4
935.863,1,4,6,5
935.864,6,7,5,8
935.864,18,18,5,1
935.865,10,12,1,-5
935.865,0,2,-2,-5
935.866,-1,1,-4,-5
935.866,0,0,-5,-7
935.867,-2,-2,-6,-7
935.868,-4,-2,-2,-2
935.868,-2,-2,0,2
935.869,2,1,3,5
935.869,3,1,4,5
935.87,3,1,4,8
935.87,5,1,3,8
935.871,6,3,6,11
935.872,11,8,8,12
935.872,14,9,5,6
935.873,9,5,1,2
935.873,4,2,0,3
935.874,8,5,-1,0
935.874,4,2,-2,-5
935.875,-5,-5,-4,-4
935.876,-6,-5,-1,0
935.876,-2,0,3,3
935.877,2,3,6,4
935.877,3,4,6,5
935.878,2,3,5,4
935.878,3,2,3,4
935.879,5,4,3,4
935.88,4,5,4,4
935.88,3,3,3,2
935.881,2,4,4,3
935.881,5,7,6,4
935.882,5,8,7,3
935.882,3,7,5,0
935.883,1,5,4,-2
935.884,0,3,4,-1
935.884,-1,2,1,-1
935.885,-2,-1,-1,-1
935.885,-1,-2,-2,0
935.886,1,0,0,2
935.886,6,3,2,4
935.887,7,6,4,5
935.888,6,4,2,4
935.888,4,2,2,4
935.889,4,1,0,3
935.889,2,-1,0,3
935.89,3,-1,-1,4
935.891,4,0,0,5
935.891,8,4,3,7
935.892,8,6,4,4
935.892,5,3,2,4
935.893,5,3,4,4
935.893,3,2,1,2
935.894,2,0,0,1
935.895,3,2,0,1
935.895,2,2,1,1
935.896,2,2,1,1
935.896,3,2,1,2
935.897,4,4,1,0
935.897,1,4,2,0
935.898,0,2,2,2
935.899,4,3,1,1
935.899,3,3,1,1
935.9,4,4,2,1
935.9,4,5,2,0
935.901,2,4,4,2
935.901,1,3,4,3
935.902,3,4,4,3
935.903,3,4,3,2
935.903,2,5,5,2
935.904,2,5,5,3
935.904,3,6,3,2
935.905,3,4,1,0
935.905,2,2,0,0
935.906,1,3,1,1
935.907,6,7,1,1
935.907,5,5,1,0
935.908,1,0,-2,-1
935.908,0,0,-1,0
935.909,0,-1,-1,1
935.909,1,0,1,4
935.91,3,0,1,7
935.911,5,1,2,7
935.911,8,6,5,8
935.912,7,5,5,5
935.912,2,0,2,4
935.913,0,-3,1,5
935.914,4,2,3,7
935.914,10,8,5,5
935.915,8,6,2,4
935.915,9,7,0,3
935.916,11,8,-2,-3
935.916,1,1,-5,-7
935.917,-4,-4,-5,-6
935.918,-4,-4,-3,-2
935.918,0,0,0,1
935.919,1,2,3,3
935.919,1,1,3,4
935.92,4,3,5,6
935.92,6,6,6,7
935.921,8,8,7,6
935.922,9,9,8,5
935.922,6,9,7,2
935.923,3,7,5,1
935.923,1,6,5,0
935.924,0,4,2,-1
935.924,-1,1,1,-1
935.925,-1,0,0,0
935.926,0,0,0,-1
935.926,1,1,0,0
935.927,1,1,0,1
935.927,2,2,0,2
935.928,3,1,1,3
935.929,2,0,0,3
935.929,3,-1,0,3
935.93,2,-1,0,5
935.93,2,-1,2,6
935.931,1,-1,5,8
935.931,3,2,9,11
935.932,7,4,8,11
935.933,9,6,8,11
935.933,12,10,6,7
935.934,11,9,3,0
935.934,3,3,-1,-2
935.935,0,0,-5,-3
935.935,2,0,-6,-5
935.936,0,0,-4,-5
935.936,0,0,0,0
935.937,5,5,0,1
935.938,5,5,1,0
935.938,0,0,0,0
935.939,1,-2,-2,4
935.939,12,7,0,3
935.94,11,10,3,1
935.94,4,7,4,1
935.941,1,3,3,2
935.942,1,1,2,3
935.942,3,4,5,4
935.943,4,6,5,1
935.943,1,6,6,2
935.944,0,6,7,1
935.945,0,5,6,1
935.945,-1,2,3,-1
935.946,-2,1,3,0
935.946,0,4,5,2
935.947,2,6,6,3
935.947,2,2,2,2
935.948,0,-3,-2,2
935.949,1,-4,-3,3
935.949,6,1,0,4
935.95,7,4,1,5
935.95,7,2,2,5
935.951,5,3,3,6
935.951,7,6,5,6
935.952,6,4,3,3
935.953,4,2,1,1
935.953,2,2,1,2
935.954,1,1,0,1
935.954,0,0,-1,0
935.955,0,-1,-1,0
935.955,1,0,1,3
935.956,3,3,3,5
935.957,5,4,3,5
935.957,6,4,1,2
935.958,4,2,0,2
935.958,2,0,0,2
935.959,4,4,3,3
935.959,5,6,5,3
935.96,5,6,5,2
935.961,4,4,2,1
935.961,4,4,2,2
935.962,5,6,3,0
935.962,3,6,3,0
935.963,1,5,3,0
935.963,3,5,2,-1
935.964,1,3,1,-1
935.965,0,2,0,-2
935.965,-1,0,0,-1
935.966,-1,0,1,1
935.966,1,4,5,3
935.967,1,3,4,3
935.967,0,0,2,2
935.968,0,0,2,4
935.969,2,0,3,8
935.969,7,4,3,10
935.97,16,9,1,5
935.97,10,5,-1,1
935.971,3,0,-2,3
935.971,6,0,-3,1
935.972,3,-1,-3,2
935.973,3,0,0,3
935.973,5,4,4,5
935.974,6,6,5,5
935.974,4,6,4,2
935.975,0,0,0,0
935.976,0,-2,-1,1
935.976,2,1,1,2
935.977,3,4,4,3
935.977,3,3,3,2
935.978,1,0,0,1
935.978,1,0,0,1
935.979,1,1,1,3
935.98,4,3,2,3
935.98,4,5,4,4
935.981,5,7,7,7
935.981,8,8,6,4
935.982,6,7,5,2
935.982,4,6,3,0
935.983,2,3,0,-2
935.984,-1,0,-1,-3
935.984,-1,0,0,-2
935.985,0,2,1,0
935.985,0,2,3,1
935.986,0,2,3,2
935.986,0,0,3,3
935.987,2,2,5,7
935.988,4,3,5,7
935.988,6,3,3,5
935.989,4,1,1,6
935.989,11,6,0,3
935.99,8,2,-3,0
935.99,2,-3,-7,0
935.991,4,1,0,4
935.992,8,6,3,4
935.992,6,5,3,3
935.993,4,3,2,3
935.993,4,2,1,1
935.994,2,2,1,1
935.995,2,0,0,0
935.995,1,2,1,0
935.996,2,1,1,2
935.996,2,2,2,2
935.997,2,1,1,1
935.997,1,0,0,1
935.998,1,1,1,3
935.998,4,3,3,4
935.999,5,4,3,4
936,6,4,2,3
936,4,4,3,4
936.001,6,6,3,4
936.001,6,7,5,3
936.002,5,7,5,2
936.003,3,5,4,0
936.003,1,3,3,0
936.004,0,4,3,0
936.004,0,4,2,-1
936.005,0,5,3,-1
936.005,0,2,2,0
936.006,0,1,1,0
936.007,0,0,0,0
936.007,0,0,1,2
936.008,2,1,2,4
936.008,3,1,2,4
936.009,4,2,2,5
936.009,5,1,1,6
936.01,4,0,0,5
936.011,5,1,1,6
936.011,7,5,5,6
936.012,6,4,3,5
936.012,5,3,1,4
936.013,4,3,2,3
936.013,5,3,1,3
936.014,5,3,0,0
936.015,2,2,0,-1
936.015,1,1,0,0
936.016,3,4,2,1
936.016,3,5,1,1
936.017,2,1,0,0
936.017,0,0,0,0
936.018,0,0,0,0
936.019,-1,-4,-2,2
936.019,1,-1,1,6
936.02,6,5,7,8
936.02,8,8,9,9
936.021,9,8,8,7
936.021,7,9,7,5
936.022,4,5,4,3
936.023,4,5,1,2
936.023,9,10,2,0
936.024,4,7,2,-4
936.024,-2,2,0,-4
936.025,-5,-2,0,-3
936.026,-6,-2,0,-1
936.026,-2,0,2,2
936.027,3,5,6,5
936.027,5,5,4,4
936.028,4,0,0,6
936.028,10,2,-3,4
936.029,12,6,-2,2
936.029,8,3,-2,1
936.03,6,3,0,3
936.031,7,6,1,1
936.031,4,4,1,0
936.032,2,4,2,0
936.032,0,2,2,0
936.033,1,2,4,2
936.034,0,0,2,1
936.034,-1,-1,1,0
936.035,-1,0,2,3
936.035,2,2,5,5
936.036,4,4,5,6
936.036,6,5,5,4
936.037,3,3,2,0
936.038,1,1,1,2
936.038,2,0,1,2
936.039,2,0,0,3
936.039,4,1,0,4
936.04,6,4,1,4
936.04,7,6,3,3
936.041,6,7,6,5
936.042,7,10,9,4
936.042,5,10,7,0
936.043,0,3,3,-2
936.043,0,2,2,0
936.044,1,2,2,1
936.044,1,2,0,0
936.045,0,0,0,-1
936.046,0,0,0,0
936.046,-1,-1,0,0
936.047,-1,-1,1,5
936.047,6,4,4,8
936.048,11,7,2,4
936.048,6,3,1,3
936.049,1,-1,0,3
936.05,3,0,0,5
936.05,8,3,0,7
936.051,15,11,3,8
936.051,18,15,4,2
936.052,7,5,0,-4
936.052,-4,-3,-3,-5
936.053,-8,-6,-3,-3
936.054,-6,-4,0,0
936.054,0,1,4,5
936.055,5,7,7,7
936.055,6,7,6,5
936.056,5,4,3,3
936.056,5,4,1,2
936.057,3,1,-1,0
936.058,3,2,0,2
936.058,3,1,0,1
936.059,2,-1,-1,1
936.059,1,-1,-1,1
936.06,2,0,1,5
936.06,7,4,4,7
936.061,8,7,6,6
936.062,8,9,7,3
936.062,5,8,6,3
936.063,3,8,7,2
936.063,1,5,5,1
936.064,0,4,2,0
936.065,0,1,0,-2
936.065,-2,0,-1,-2
936.066,0,0,1,1
936.066,2,2,1,2
936.067,1,0,0,1
936.067,2,1,1,4
936.068,3,1,2,5
936.069,5,2,2,6
936.069,7,4,2,3
936.07,5,3,1,1
936.07,1,0,0,1
936.071,0,0,1,3
936.071,3,3,4,5
936.072,5,3,4,6
936.073,5,4,4,5
936.073,5,3,1,3
936.074,4,0,0,2
936.074,4,3,0,2
936.075,6,6,3,1
936.075,4,5,3,0
936.076,1,3,2,0
936.077,0,2,1,0
936.077,0,2,2,0
936.078,0,1,2,0
936.078,0,0,0,1
936.079,0,0,1,3
936.079,1,0,1,3
936.08,2,2,4,6
936.081,5,4,6,8
936.081,7,7,7,8
936.082,8,9,8,6
936.082,7,9,7,3
936.083,5,8,5,2
936.083,8,10,1,-2
936.084,3,6,-1,-7
936.085,-3,-1,-4,-8
936.085,-7,-5,-4,-6
936.086,-6,-4,-2,0
936.086,2,2,1,5
936.087,13,11,4,5
936.088,12,9,2,2
936.088,5,3,0,2
936.089,3,0,0,2
936.089,2,0,0,2
936.09,2,0,0,3
936.09,4,2,3,7
936.091,7,7,7,7
936.092,7,5,4,3
936.092,2,0,0,0
936.093,0,0,0,1
936.093,2,3,3,4
936.094,4,3,2,3
936.094,4,3,1,1
936.095,2,2,0,0
936.096,0,0,0,0
936.096,0,0,1,3
936.097,4,3,2,4
936.097,5,1,0,2
936.098,2,0,-1,1
936.098,3,1,0,3
936.099,5,4,3,5
936.1,6,5,4,5
936.1,5,3,3,4
936.101,3,2,2,2
936.101,3,6,5,4
936.102,5,8,8,4
936.102,6,10,7,3
936.103,4,8,4,-1
936.104,-1,3,1,-3
936.104,-1,2,0,-1
936.105,3,4,0,-1
936.105,1,2,0,-1
936.106,0,1,0,-1
936.106,-1,0,0,-1
936.107,-3,-2,1,1
936.108,-1,-1,3,5
936.108,0,0,4,7
936.109,3,0,5,9
936.109,6,1,4,10
936.11,11,5,3,10
936.11,15,10,3,6
936.111,12,11,4,3
936.112,7,4,0,0
936.112,4,2,-2,-2
936.113,2,2,-3,-4
936.113,0,0,-2,-3
936.114,-2,-1,-1,-2
936.115,-1,0,1,0
936.115,0,0,3,1
936.116,-1,0,4,2
936.116,0,0,5,4
936.117,1,1,4,7
936.117,6,3,2,8
936.118,12,6,2,5
936.119,7,2,-1,2
936.119,3,0,0,4
936.12,7,6,4,4
936.12,6,6,3,2
936.121,2,2,3,2
936.121,2,3,4,3
936.122,2,4,4,2
936.123,5,6,3,4
936.123,11,12,4,2
936.124,9,11,2,-2
936.124,1,3,0,-5
936.125,-4,-2,-3,-6
936.125,-7,-5,-4,-4
936.126,-3,-3,0,1
936.127,1,1,3,5
936.127,6,4,5,6
936.128,5,4,4,5
936.128,4,4,4,4
936.129,4,4,4,5
936.129,3,1,2,5
936.13,4,1,2,5
936.131,5,1,0,4
936.131,6,3,2,3
936.132,5,3,2,4
936.132,4,3,2,4
936.133,4,2,2,3
936.133,3,1,0,2
936.134,2,0,0,0
936.135,2,2,1,1
936.135,2,3,3,2
936.136,1,2,3,2
936.136,1,1,1,1
936.137,0,-1,-1,0
936.137,1,1,1,2
936.138,4,5,5,5
936.139,7,8,6,5
936.139,8,7,3,3
936.14,4,2,-1,0
936.14,2,1,0,0
936.141,2,2,2,3
936.141,5,7,5,5
936.142,6,8,5,2
936.143,3,4,3,0
936.143,0,1,0,-1
936.144,0,0,1,0
936.144,1,5,6,2
936.145,1,4,5,2
936.146,0,1,3,2
936.146,2,2,2,3
936.147,3,2,1,2
936.147,3,1,0,2
936.148,3,0,0,3
936.148,6,3,1,4
936.149,6,3,0,2
936.15,4,1,0,2
936.15,2,0,0,3
936.151,3,1,2,5
936.151,7,5,5,5
936.152,6,4,4,4
936.152,5,4,4,3
936.153,3,2,1,1
936.154,1,0,0,0
936.154,2,2,0,0
936.155,3,2,1,2
936.155,3,3,2,2
936.156,3,2,0,0
936.156,1,1,0,0
936.157,0,1,0,0
936.158,1,1,1,1
936.158,3,2,1,2
936.159,3,2,3,4
936.159,5,3,3,4
936.16,5,5,5,4
936.16,6,6,5,4
936.161,5,6,4,3
936.162,4,7,5,2
936.162,4,8,6,2
936.163,4,8,4,0
936.163,2,6,3,-1
936.164,0,2,1,-2
936.164,-3,0,0,-2
936.165,-3,-1,1,0
936.166,0,0,1,2
936.166,1,1,2,3
936.167,4,2,2,4
936.167,5,2,2,5
936.168,5,1,1,5
936.168,6,1,0,4
936.169,6,2,0,4
936.17,5,0,0,3
936.17,4,0,0,4
936.171,6,3,3,5
936.171,6,4,5,5
936.172,3,4,5,4
936.172,1,1,3,2
936.173,0,0,2,1
936.174,-2,-1,1,2
936.174,0,0,1,3
936.175,5,4,3,4
936.175,9,8,4,4
936.176,10,10,3,3
936.177,10,8,0,-1
936.177,5,3,-3,-3
936.178,2,0,-4,-3
936.178,0,0,-3,-2
936.179,0,0,0,0
936.179,1,2,1,2
936.18,2,4,5,4
936.181,2,1,2,4
936.181,3,1,2,4
936.182,5,7,7,6
936.182,7,10,9,5
936.183,7,10,7,4
936.183,9,11,4,0
936.184,2,5,1,-4
936.185,-2,0,0,-4
936.185,-4,-1,0,-2
936.186,-2,0,0,0
936.186,0,1,2,3
936.187,3,2,4,5
936.188,4,1,2,4
936.188,3,0,0,4
936.189,4,0,0,4
936.189,5,1,0,5
936.19,7,2,0,5
936.19,8,4,2,5
936.191,6,3,3,5
936.192,4,3,4,4
936.192,4,3,4,3
936.193,3,4,4,3
936.193,3,5,4,2
936.194,3,4,4,0
936.194,1,4,2,-1
936.195,0,0,0,-1
936.196,-2,-4,-3,-2
936.196,-3,-6,-3,1
936.197,0,-1,0,3
936.197,2,1,4,4
936.198,2,3,6,6
936.198,2,3,7,8
936.199,5,4,7,9
936.199,6,3,3,9
936.2,13,8,2,7
936.201,14,12,3,2
936.201,6,5,0,0
936.202,1,1,0,0
936.202,-1,-2,-1,-1
936.203,0,0,0,0
936.204,3,6,4,2
936.204,5,10,8,1
936.205,2,7,6,0
936.205,0,4,5,0
936.206,0,4,2,0
936.206,5,7,0,0
936.207,7,5,-3,-4
936.208,1,0,-4,-3
936.208,0,-2,-4,-1
936.209,0,-2,-2,0
936.209,0,-1,0,3
936.21,1,0,2,6
936.211,6,4,6,9
936.211,9,6,8,9
936.212,7,5,5,5
936.212,3,1,2,3
936.213,4,4,3,5
936.213,6,5,5,5
936.214,7,6,2,2
936.214,4,3,0,0
936.215,2,1,-2,-1
936.216,0,0,-1,-1
936.216,0,2,1,1
936.217,1,0,0,0
936.217,0,0,0,1
936.218,1,0,1,2
936.219,3,3,4,5
936.219,6,6,5,6
936.22,7,5,3,4
936.22,4,3,1,3
936.221,4,3,1,3
936.221,6,6,4,3
936.222,7,9,6,3
936.223,4,6,4,1
936.223,2,5,3,0
936.224,-1,1,1,-1
936.224,0,2,2,0
936.225,0,1,2,0
936.225,-1,0,2,0
936.226,-2,-1,3,4
936.227,1,1,4,5
936.227,2,1,4,5
936.228,5,3,3,6
936.228,8,5,2,4
936.229,6,4,2,3
936.229,5,1,-1,2
936.23,3,-3,-4,2
936.231,5,0,-2,3
936.231,7,4,2,4
936.232,5,4,4,6
936.232,4,2,3,4
936.233,4,4,3,3
936.233,3,3,2,1
936.234,3,4,2,0
936.235,2,4,2,0
936.235,2,4,2,0
936.236,0,1,0,0
936.236,-1,0,0,0
936.237,1,1,2,1
936.237,1,1,2,3
936.238,4,2,2,3
936.239,5,4,2,2
936.239,3,1,0,3
936.24,6,5,3,5
936.24,11,9,3,4
936.241,9,10,4,1
936.241,4,6,3,0
936.242,0,3,2,-1
936.243,-1,2,2,0
936.243,0,3,4,2
936.244,2,4,3,1
936.244,2,4,2,0
936.245,0,1,1,0
936.245,0,0,0,0
936.246,0,0,2,1
936.247,2,2,2,3
936.247,2,1,3,3
936.248,0,0,2,3
936.248,0,0,2,5
936.249,3,1,2,7
936.249,9,4,2,8
936.25,12,6,1,5
936.251,8,5,2,4
936.251,8,6,2,3
936.252,6,5,1,0
936.252,2,2,0,0
936.253,1,1,0,0
936.253,0,1,2,0
936.254,-1,0,1,0
936.255,-3,-3,0,0
936.255,-2,-1,2,3
936.256,2,2,4,6
936.256,5,2,1,8
936.257,11,3,0,6
936.258,16,10,0,2
936.258,8,8,2,0
936.259,4,5,4,1
936.259,2,3,2,0
936.26,1,2,0,-1
936.26,2,3,2,0
936.261,2,5,3,0
936.261,3,6,4,1
936.262,2,6,4,0
936.263,0,4,3,0
936.263,0,2,2,0
936.264,0,2,3,1
936.264,2,4,3,1
936.265,2,4,3,2
936.266,1,1,1,1
936.266,1,0,1,2
936.267,1,1,2,3
936.267,2,1,2,4
936.268,3,2,3,5
936.268,4,1,2,4
936.269,3,0,1,4
936.27,3,0,0,5
936.27,6,2,1,5
936.271,7,5,4,6
936.271,7,5,4,4
936.272,7,5,2,3
936.272,4,3,1,1
936.273,3,2,0,0
936.274,0,0,0,0
936.274,1,1,0,1
936.275,2,2,2,2
936.275,4,4,3,3
936.276,3,2,1,1
936.276,1,0,0,1
936.277,1,2,0,2
936.278,3,3,2,1
936.278,4,4,3,1
936.279,1,3,3,1
936.279,1,3,3,2
936.28,3,4,3,2
936.28,0,-1,0,3
936.281,2,0,2,4
936.282,6,7,6,6
936.282,6,7,6,6
936.283,8,8,6,5
936.283,8,8,4,1
936.284,5,7,2,0
936.284,4,6,0,-2
936.285,1,2,-2,-4
936.286,-2,1,0,-4
936.286,-3,0,0,-2
936.287,-3,-2,0,0
936.287,-3,-2,0,1
936.288,0,-2,1,5
936.289,4,0,0,7
936.289,7,1,3,10
936.29,11,5,4,9
936.29,9,5,4,7
936.291,8,7,6,6
936.291,7,8,7,5
936.292,5,5,3,2
936.292,1,2,0,0
936.293,0,0,-2,-1
936.294,-1,0,-1,0
936.294,0,1,1,1
936.295,1,1,1,1
936.295,0,1,1,2
936.296,2,1,2,2
936.297,2,2,1,1
936.297,2,0,1,2
936.298,3,2,2,3
936.298,4,2,2,4
936.299,4,2,1,4
936.299,5,2,1,4
936.3,5,4,3,5
936.301,7,7,5,4
936.301,7,7,5,3
936.302,7,7,3,1
936.302,4,6,3,0
936.303,2,4,2,0
936.304,1,3,1,0
936.304,1,3,0,-1
936.305,0,3,1,0
936.305,0,4,2,-1
936.306,0,1,1,0
936.306,0,1,0,1
936.307,3,1,1,1
936.308,3,1,1,3
936.308,4,1,1,3
936.309,3,1,0,4
936.309,4,0,0,4
936.31,5,0,0,5
936.31,6,1,2,6
936.311,7,5,3,6
936.312,7,6,5,5
936.312,7,5,3,4
936.313,4,3,2,3
936.313,3,3,1,1
936.314,2,2,0,0
936.314,1,1,0,0
936.315,2,2,1,0
936.315,0,2,3,1
936.316,0,1,2,0
936.317,0,-1,0,0
936.317,0,-2,-1,1
936.318,1,0,1,4
936.318,6,4,3,5
936.319,7,5,3,4
936.32,6,4,3,4
936.32,5,4,4,3
936.321,3,4,5,3
936.321,2,5,6,4
936.322,2,6,7,3
936.322,2,6,7,1
936.323,0,4,6,0
936.324,0,3,5,1
936.324,0,3,2,1
936.325,3,4,1,1
936.325,5,5,0,0
936.326,3,4,1,0
936.326,3,1,-1,0
936.327,3,0,-4,0
936.328,4,1,-3,0
936.328,3,0,-1,0
936.329,2,-1,-1,2
936.329,3,0,0,3
936.33,6,1,1,7
936.33,11,7,3,7
936.331,14,11,5,4
936.332,7,6,3,1
936.332,1,1,1,-1
936.333,-3,-1,1,0
936.333,-5,-3,2,1
936.334,-2,0,5,5
936.334,1,2,6,6
936.335,3,4,6,7
936.336,6,6,4,5
936.336,6,4,0,2
936.337,6,2,-2,3
936.337,12,6,-3,0
936.338,8,7,-1,-3
936.339,1,2,-1,-2
936.339,0,-1,-3,-1
936.34,1,1,0,0
936.34,3,4,3,3
936.341,5,6,4,4
936.341,6,8,6,3
936.342,5,6,5,2
936.343,3,6,5,0
936.343,1,4,4,1
936.344,1,4,3,0
936.344,0,2,2,0
936.345,0,1,1,0
936.345,0,1,1,0
936.346,-1,0,1,2
936.347,0,0,2,3
936.347,1,0,2,4
936.348,2,1,3,4
936.348,2,0,3,5
936.349,0,-2,1,6
936.349,2,-3,0,8
936.35,6,3,5,9
936.351,10,9,9,9
936.351,8,7,6,6
936.352,6,4,4,4
936.352,4,2,2,3
936.353,3,2,0,0
936.353,2,0,-2,-1
936.354,0,0,-3,-1
936.355,1,0,-1,0
936.355,2,1,0,1
936.356,4,3,2,2
936.356,3,2,1,1
936.357,2,1,0,1
936.357,1,1,1,3
936.358,2,2,2,4
936.359,6,4,2,4
936.359,8,4,0,3
936.36,7,7,2,1
936.36,5,6,4,2
936.361,5,8,6,3
936.361,5,10,6,1
936.362,4,7,3,-1
936.363,1,4,1,-2
936.363,1,4,3,-1
936.364,0,2,0,-2
936.364,-1,0,0,-2
936.365,-1,0,0,0
936.365,1,3,2,0
936.366,1,3,3,2
936.367,0,0,1,2
936.367,1,-1,0,3
936.368,3,1,2,6
936.368,7,4,3,8
936.369,9,4,4,8
936.37,8,4,3,6
936.37,6,1,0,4
936.371,4,2,2,4
936.371,5,4,2,4
936.372,6,5,3,2
936.372,3,2,1,1
936.373,1,1,1,0
936.374,0,1,1,0
936.374,0,0,1,0
936.375,0,1,1,1
936.375,0,1,2,2
936.376,2,2,2,3
936.376,3,1,0,3
936.377,3,0,-1,2
936.378,2,0,0,3
936.378,5,3,2,7
936.379,11,8,3,5
936.379,10,8,2,2
936.38,6,5,2,1
936.38,3,4,2,1
936.381,3,4,3,1
936.382,2,5,4,0
936.382,1,5,3,1
936.383,2,5,4,1
936.383,3,5,3,1
936.384,2,3,2,0
936.384,1,3,2,0
936.385,2,3,0,0
936.386,1,2,1,0
936.386,2,2,1,0
936.387,1,1,0,1
936.387,1,0,0,0
936.388,2,0,0,2
936.388,3,-1,0,4
936.389,3,0,0,5
936.39,5,0,0,6
936.39,5,0,1,7
936.391,7,5,6,9
936.391,10,9,9,9
936.392,9,8,8,5
936.392,4,4,4,0
936.393,-1,-2,0,-1
936.394,-2,-3,0,0
936.394,0,0,1,1
936.395,1,0,1,3
936.395,2,2,3,4
936.396,4,3,3,4
936.396,4,3,2,3
936.397,3,1,0,3
936.398,6,4,0,3
936.398,9,6,0,1
936.399,7,5,0,1
936.399,8,6,0,0
936.4,4,4,-1,-2
936.4,0,2,0,0
936.401,2,5,2,3
936.402,11,12,4,2
936.402,7,10,2,-2
936.403,1,4,2,-2
936.403,-1,3,2,-2
936.404,-3,2,3,0
936.404,-2,0,4,1
936.405,-1,1,2,1
936.406,0,1,3,2
936.406,0,0,2,2
936.407,0,-1,0,3
936.407,1,0,3,7
936.408,7,3,3,9
936.409,10,4,1,6
936.409,8,3,1,6
936.41,6,1,0,4
936.41,6,2,1,5
936.411,7,4,3,4
936.411,6,5,2,3
936.412,3,3,1,2
936.413,2,2,2,1
936.413,1,0,0,0
936.414,0,0,1,0
936.414,0,0,3,2
936.415,0,0,3,3
936.415,0,1,3,4
936.416,2,1,1,2
936.417,2,1,2,4
936.417,4,2,2,3
936.418,4,3,2,4
936.418,4,3,1,4
936.419,8,5,1,2
936.419,7,7,1,1
936.42,3,6,3,0
936.421,1,3,3,2
936.421,3,4,3,2
936.422,3,5,3,0
936.422,2,5,3,0
936.423,1,6,5,1
936.423,1,5,5,1
936.424,1,4,2,-1
936.425,-1,0,1,0
936.425,0,3,2,1
936.426,2,4,4,1
936.426,0,1,3,3
936.427,2,1,1,3
936.427,5,2,-1,1
936.428,4,0,-3,1
936.429,4,0,-1,2
936.429,5,0,0,4
936.43,6,0,0,5
936.43,6,2,2,5
936.431,7,4,5,7
936.431,6,5,6,6
936.432,4,4,4,5
936.433,5,3,3,3
936.433,3,2,2,1
936.434,1,2,1,0
936.434,0,1,1,0
936.435,1,3,2,1
936.435,1,0,0,1
936.436,2,-2,-2,1
936.437,3,1,-1,2
936.437,3,2,1,3
936.438,4,3,2,3
936.438,4,3,3,4
936.439,5,3,2,2
936.44,3,4,3,2
936.44,3,4,4,4
936.441,4,5,5,6
936.441,11,12,6,5
936.442,12,11,4,0
936.442,3,4,0,-3
936.443,0,3,0,-4
936.444,-2,0,0,-2
936.444,-2,0,0,-1
936.445,-2,0,0,0
936.445,0,2,3,2
936.446,3,6,6,3
936.446,2,4,4,2
936.447,1,1,2,2
936.448,2,2,1,2
936.448,3,2,1,3
936.449,4,1,1,3
936.449,3,-1,-1,3
936.45,5,0,0,7
936.45,10,5,3,7
936.451,10,8,5,5
936.452,6,6,4,3
936.452,3,3,1,1
936.453,1,0,0,0
936.453,0,0,0,0
936.454,0,0,0,1
936.454,0,0,1,1
936.455,2,2,3,2
936.456,1,1,1,3
936.456,2,0,0,3
936.457,3,1,0,3
936.457,4,2,2,4
936.458,5,3,2,3
936.458,4,3,2,4
936.459,4,2,1,3
936.46,5,2,1,3
936.46,6,5,3,4
936.461,6,7,5,3
936.461,5,8,6,2
936.462,4,7,4,0
936.462,0,4,2,-2
936.463,-2,2,3,-1
936.464,-2,2,3,0
936.464,-1,3,3,0
936.465,0,1,2,3
936.465,5,4,1,2
936.466,7,5,0,0
936.467,4,3,0,0
936.467,3,2,0,1
936.468,3,1,0,2
936.468,4,2,0,3
936.469,5,1,0,2
936.469,4,0,-1,1
936.47,3,1,1,3
936.471,3,2,4,4
936.471,2,2,4,4
936.472,1,0,2,4
936.472,2,0,2,6
936.473,5,3,5,10
936.473,10,7,4,10
936.474,16,10,1,2
936.475,8,6,-1,-3
936.475,0,0,-3,-4
936.476,-2,-1,-1,-3
936.476,-3,-2,-1,-2
936.477,-3,-1,0,-1
936.477,-1,1,1,1
936.478,1,2,5,5
936.479,4,4,6,6
936.479,5,4,4,5
936.48,6,6,5,5
936.48,6,6,5,5
936.481,6,7,6,4
936.481,4,6,5,2
936.482,0,2,3,0
936.483,0,3,2,0
936.483,0,3,4,2
936.484,3,4,3,3
936.484,4,5,3,0
936.485,1,2,0,0
936.485,1,1,0,0
936.486,0,2,1,0
936.487,0,2,3,1
936.487,-1,-2,0,1
936.488,0,-1,0,3
936.488,4,0,1,4
936.489,5,2,2,6
936.49,8,3,3,7
936.49,11,7,4,7
936.491,11,7,2,2
936.491,4,2,0,0
936.492,1,0,0,1
936.492,2,2,2,2
936.493,0,0,1,1
936.494,0,0,1,2
936.494,1,1,2,4
936.495,4,3,2,3
936.495,4,4,3,3
936.496,5,4,2,1
936.496,2,3,1,1
936.497,4,4,3,2
936.498,3,3,2,0
936.498,1,2,1,0
936.499,1,0,1,1
936.499,1,1,1,3
936.5,4,3,2,3
936.5,5,5,4,4
936.501,5,6,4,4
936.502,5,5,4,2
936.502,3,4,3,2
936.503,4,8,6,2
936.503,4,8,5,1
936.504,1,3,2,0
936.504,0,0,0,0
936.505,0,0,0,-1
936.506,1,0,0,0
936.506,2,1,0,1
936.507,2,0,0,3
936.507,4,1,2,6
936.508,6,3,1,5
936.508,7,3,1,5
936.509,6,4,2,4
936.51,4,2,1,4
936.51,6,4,3,4
936.511,5,5,4,1
936.511,0,0,0,1
936.512,-1,-3,-1,2
936.512,0,0,1,3
936.513,1,0,2,4
936.514,3,3,5,6
936.514,5,5,5,5
936.515,6,5,3,3
936.515,5,4,2,2
936.516,3,2,1,0
936.516,2,1,0,0
936.517,3,2,-1,2
936.518,8,5,-1,0
936.518,8,6,0,-1
936.519,2,-1,-4,-1
936.519,0,-3,-4,1
936.52,7,5,2,3
936.521,9,10,7,4
936.521,5,9,7,3
936.522,2,7,7,3
936.522,3,6,5,0
936.523,1,5,4,-2
936.523,-3,0,2,-2
936.524,-5,-2,0,0
936.525,-4,-2,3,3
936.525,0,1,5,5
936.526,3,4,6,5
936.526,3,4,5,4
936.527,3,1,2,4
936.527,2,0,2,6
936.528,2,-1,0,5
936.529,4,0,0,5
936.529,6,2,1,7
936.53,13,8,3,7
936.53,12,10,4,2
936.531,4,5,1,0
936.531,-1,0,-1,-2
936.532,-1,-1,-1,-1
936.533,-1,-2,-1,0
936.533,0,1,2,4
936.534,3,3,4,5
936.534,5,3,2,5
936.535,7,5,2,6
936.535,11,10,4,2
936.536,6,5,1,0
936.537,0,0,-2,0
936.537,0,-2,-2,0
936.538,1,0,0,1
936.538,2,3,3,3
936.539,5,5,4,5
936.539,7,6,3,4
936.54,6,6,1,0
936.541,3,2,0,0
936.541,2,3,2,1
936.542,3,7,5,3
936.542,6,9,7,2
936.543,4,7,5,-1
936.544,0,4,3,-2
936.544,-3,2,2,0
936.545,-2,1,1,0
936.545,0,0,0,1
936.546,2,2,2,2
936.546,3,4,4,3
936.547,2,1,3,3
936.548,1,-1,0,3
936.548,2,-1,0,4
936.549,4,0,0,5
936.549,4,0,0,7
936.55,7,3,2,7
936.55,9,6,6,8
936.551,10,8,6,6
936.552,6,5,3,2
936.552,3,3,1,0
936.553,0,1,0,-1
936.553,0,1,0,0
936.554,1,1,0,1
936.554,3,2,0,1
936.555,3,1,0,0
936.556,0,-1,0,0
936.556,1,1,0,2
936.557,3,2,2,4
936.557,4,3,3,4
936.558,4,3,3,4
936.558,4,3,3,4
936.559,4,3,3,4
936.56,5,4,3,3
936.56,3,4,4,3
936.561,4,6,5,3
936.561,5,7,6,3
936.562,4,6,5,1
936.562,3,6,3,0
936.563,2,5,3,0
936.564,1,3,2,0
936.564,1,2,0,0
936.565,1,2,0,-1
936.565,0,0,0,0
936.566,0,2,1,1
936.566,2,2,1,3
936.567,2,1,2,5
936.568,6,3,0,2
936.568,5,2,-1,1
936.569,2,0,0,3
936.569,2,0,0,4
936.57,5,1,2,6
936.571,7,5,5,7
936.571,6,5,5,6
936.572,6,3,2,4
936.572,5,5,3,4
936.573,5,3,2,1
936.573,3,1,0,0
936.574,1,1,0,0
936.575,1,1,0,1
936.575,2,3,3,4
936.576,3,2,1,2
936.576,1,0,0,0
936.577,0,0,0,0
936.577,1,0,0,3
936.578,4,3,2,4
936.578,6,5,2,3
936.579,6,5,3,3
936.58,7,8,4,2
936.58,6,10,7,3
936.581,2,7,7,0
936.581,-1,1,2,0
936.582,-1,1,0,0
936.583,0,3,2,1
936.583,2,4,3,3
936.584,3,3,2,3
936.584,4,3,1,1
936.585,4,5,2,3
936.585,8,11,5,2
936.586,10,11,3,-1
936.587,2,2,-2,-3
936.587,-2,-1,-2,-3
936.588,-2,-4,-4,-3
936.588,-2,-6,-5,0
936.589,0,-1,0,5
936.589,5,1,3,7
936.59,5,1,4,9
936.591,7,4,6,10
936.591,8,5,6,6
936.592,5,4,6,5
936.592,3,4,6,5
936.593,1,2,4,4
936.593,1,0,2,5
936.594,7,3,0,4
936.595,13,9,0,0
936.595,8,6,-1,-2
936.596,1,0,-2,-1
936.596,0,-1,-3,-1
936.597,2,0,-3,-1
936.598,1,0,-1,0
936.598,1,0,0,3
936.599,4,2,3,5
936.599,6,5,4,4
936.6,5,5,4,2
936.6,1,2,4,2
936.601,2,4,5,5
936.602,6,8,9,7
936.602,7,8,7,2
936.603,3,8,5,0
936.603,0,6,4,-2
936.604,-2,2,2,-1
936.604,-3,-2,-1,0
936.605,1,0,-2,1
936.605,6,5,0,0
936.606,4,4,0,1
936.607,3,1,0,4
936.607,5,3,2,4
936.608,6,4,2,2
936.608,2,0,0,0
936.609,1,0,1,3
936.61,2,0,1,4
936.61,3,0,0,5
936.611,4,0,1,4
936.611,3,0,2,5
936.612,4,2,3,6
936.612,7,6,7,8
936.613,8,7,5,5
936.614,6,4,1,1
936.614,2,0,0,-1
936.615,0,0,-1,0
936.615,1,1,0,2
936.616,4,2,2,2
936.616,3,2,0,0
936.617,1,1,0,0
936.618,1,2,0,2
936.618,3,3,2,2
936.619,3,3,2,3
936.619,3,4,3,2
936.62,3,4,4,4
936.62,5,5,5,4
936.621,4,6,5,4
936.622,5,7,5,3
936.622,4,6,4,1
936.623,0,3,3,0
936.623,-2,0,1,0
936.624,-1,0,0,2
936.625,2,1,0,2
936.625,5,5,3,3
936.626,5,7,4,1
936.626,3,6,4,0
936.627,2,4,3,0
936.627,1,1,0,0
936.628,0,0,0,0
936.628,0,-3,-1,1
936.629,3,0,0,5
936.63,5,0,0,5
936.63,6,1,0,5
936.631,7,3,3,6
936.631,8,5,4,7
936.632,8,5,3,4
936.632,6,4,2,3
936.633,3,1,1,2
936.634,2,2,1,2
936.634,3,2,2,2
936.635,2,2,2,2
936.635,2,2,2,2
936.636,1,1,1,1
936.636,1,2,1,1
936.637,3,3,1,2
936.638,5,5,1,1
936.638,5,4,0,0
936.639,2,2,0,0
936.639,2,4,2,3
936.64,5,5,2,3
936.641,4,6,4,3
936.641,5,6,5,2
936.642,2,5,4,1
936.642,3,6,4,1
936.643,2,4,3,1
936.643,2,4,2,0
936.644,1,3,1,0
936.645,0,0,0,0
936.645,1,2,1,1
936.646,3,4,2,2
936.646,3,2,2,3
936.647,3,1,0,2
936.647,2,0,0,2
936.648,3,0,0,4
936.649,4,1,0,5
936.649,4,2,1,5
936.65,5,2,2,4
936.65,6,4,5,6
936.651,6,6,5,5
936.651,4,4,4,4
936.652,3,3,2,2
936.653,2,2,1,1
936.653,0,0,0,0
936.654,1,1,0,1
936.654,1,1,0,1
936.655,1,0,1,2
936.655,2,2,2,2
936.656,2,1,0,3
936.657,3,1,1,3
936.657,4,1,1,3
936.658,3,2,1,3
936.658,4,3,2,5
936.659,7,6,4,5
936.659,11,11,5,1
936.66,5,8,4,0
936.661,-1,1,1,0
936.661,0,2,2,0
936.662,0,1,2,0
936.662,0,3,4,3
936.663,3,4,4,4
936.664,5,6,4,5
936.664,7,7,2,3
936.665,9,7,0,0
936.665,6,4,-2,-1
936.666,5,4,-2,-2
936.666,3,3,0,-2
936.667,0,0,-1,-1
936.668,-1,-1,-2,-1
936.668,0,0,0,1
936.669,2,1,1,4
936.669,3,1,3,6
936.67,6,3,3,6
936.67,5,3,4,6
936.671,5,4,4,6
936.672,4,3,4,5
936.672,5,4,6,6
936.673,3,4,4,4
936.673,2,3,3,2
936.674,2,2,1,1
936.674,2,1,0,0
936.675,2,1,0,1
936.676,3,3,1,1
936.676,2,1,0,0
936.677,1,0,-2,1
936.677,3,1,0,2
936.678,6,4,0,2
936.678,4,3,1,2
936.679,1,2,2,2
936.68,1,1,4,4
936.68,4,4,6,6
936.681,6,7,7,5
936.681,6,9,7,4
936.682,4,7,6,2
936.682,2,4,3,0
936.683,0,3,2,0
936.684,0,0,0,0
936.684,1,2,0,1
936.685,4,3,0,2
936.685,6,5,2,1
936.686,3,3,1,1
936.686,2,0,0,0
936.687,1,0,-1,1
936.688,2,0,0,2
936.688,2,1,0,3
936.689,3,0,0,3
936.689,3,0,0,3
936.69,4,1,2,6
936.69,7,5,6,6
936.691,7,6,7,7
936.692,5,4,5,5
936.692,4,4,3,3
936.693,2,1,2,1
936.693,1,1,1,1
936.694,2,1,0,1
936.695,3,3,1,2
936.695,5,4,1,0
936.696,2,2,0,0
936.696,0,0,0,0
936.697,0,0,0,1
936.697,0,0,1,1
936.698,2,1,2,3
936.699,5,3,2,4
936.699,4,2,2,4
936.7,7,4,2,4
936.7,8,7,4,4
936.701,8,8,5,3
936.701,5,8,5,0
936.702,3,7,5,0
936.703,1,5,4,0
936.703,0,4,2,0
936.704,1,4,1,-1
936.704,0,1,0,-1
936.705,0,1,0,0
936.705,1,2,1,1
936.706,2,3,1,0
936.707,1,1,1,1
936.707,2,1,2,4
936.708,3,1,1,3
936.708,3,1,1,4
936.709,4,1,2,4
936.709,3,0,2,5
936.71,5,2,2,6
936.711,6,1,1,6
936.711,6,0,0,5
936.712,6,2,0,3
936.712,5,4,2,2
936.713,3,3,4,3
