Program Time [s],data 0,data 1,data 2,data 3
829.739,9,7,4,5
829.74,8,9,4,4
829.74,6,8,4,3
829.741,5,7,4,1
829.741,4,8,5,1
829.742,3,7,4,-1
829.742,0,6,5,0
829.743,0,5,6,0
829.744,0,5,5,0
829.744,0,3,2,-1
829.745,-2,0,0,0
829.745,0,0,0,1
829.746,2,1,1,2
829.746,3,1,1,2
829.747,2,0,0,2
829.748,4,0,1,4
829.748,3,0,1,5
829.749,4,0,2,6
829.749,5,0,1,6
829.75,5,-1,0,6
829.75,6,0,1,7
829.751,7,4,5,8
829.752,9,6,6,8
829.752,8,5,3,4
829.753,5,4,3,2
829.753,2,2,0,0
829.754,0,1,0,0
829.755,0,0,0,-1
829.755,0,0,0,1
829.756,2,1,1,0
829.756,1,2,1,1
829.757,1,1,0,1
829.757,2,2,0,2
829.758,4,3,0,1
829.758,5,3,1,2
829.759,5,4,2,2
829.76,5,6,4,3
829.76,6,7,5,4
829.761,7,9,6,3
829.761,5,9,7,2
829.762,3,8,6,0
829.762,3,8,4,0
829.763,0,5,3,-2
829.764,-1,3,2,-2
829.764,-2,1,1,-1
829.765,-2,0,0,-1
829.765,-2,0,0,0
829.766,0,0,2,2
829.767,2,1,3,4
829.767,4,2,3,6
829.768,6,4,3,6
829.768,7,4,2,5
829.769,7,3,0,4
829.769,4,-1,-1,2
829.77,2,-3,-2,4
829.771,4,0,1,6
829.771,6,3,4,7
829.772,6,5,4,6
829.772,6,4,4,4
829.773,5,3,3,3
829.773,3,1,0,1
829.774,1,0,0,0
829.775,2,0,0,0
829.775,2,2,0,1
829.776,1,0,1,2
829.776,2,2,1,2
829.777,2,1,1,2
829.777,4,3,2,3
829.778,5,6,3,2
829.779,5,5,3,2
829.779,4,4,2,1
829.78,4,4,1,1
829.78,4,3,0,0
829.781,5,5,3,2
829.781,7,9,6,3
829.782,5,10,7,2
829.783,5,10,6,0
829.783,0,6,3,-2
829.784,-1,3,3,-1
829.784,-2,2,2,-2
829.785,-3,0,1,-1
829.785,-3,0,2,0
829.786,-1,0,2,1
829.787,0,0,3,5
829.787,4,3,3,6
829.788,6,2,1,5
829.788,6,1,0,4
829.789,5,-1,-2,5
829.789,6,0,-2,4
829.79,6,-1,-2,4
829.791,6,2,1,6
829.791,7,3,4,7
829.792,6,5,4,7
829.792,6,3,4,5
829.793,4,2,1,3
829.794,3,1,0,1
829.794,2,0,0,1
829.795,3,2,0,1
829.795,2,1,0,1
829.796,3,3,0,1
829.796,3,2,0,1
829.797,1,1,0,0
829.798,0,0,1,1
829.798,2,2,2,3
829.799,4,4,3,4
829.799,7,7,4,4
829.8,6,8,4,3
829.8,5,7,5,1
829.801,4,6,4,0
829.802,2,6,4,0
829.802,0,5,5,0
829.803,0,6,6,0
829.803,0,6,6,0
829.804,0,3,4,0
829.804,-1,2,2,-1
829.805,-2,0,1,0
829.806,0,0,1,1
829.806,1,2,2,2
829.807,4,2,1,3
829.807,3,1,0,4
829.808,6,1,0,6
829.808,10,4,-1,3
829.809,7,0,-2,3
829.81,4,-2,-2,3
829.81,4,-1,0,5
829.811,6,3,3,6
829.811,6,5,5,6
829.812,3,3,4,5
829.812,4,5,5,4
829.813,3,3,3,3
829.814,3,1,0,0
829.814,0,-1,0,0
829.815,0,-3,-2,1
829.815,1,0,0,3
829.816,3,1,2,4
829.816,5,3,2,4
829.817,5,3,2,4
829.818,5,3,1,4
829.818,5,4,2,3
829.819,6,4,1,1
829.819,3,3,1,0
829.82,2,3,3,3
829.821,4,6,5,4
829.821,5,7,5,3
829.822,4,8,6,1
829.822,2,6,4,0
829.823,1,6,4,0
829.823,1,5,3,-1
829.824,1,5,4,0
829.825,5,8,1,-1
829.825,3,4,-1,-5
829.826,-1,0,-1,-3
829.826,-2,0,-1,-1
829.827,0,0,0,0
829.827,1,0,0,2
829.828,2,0,1,5
829.829,5,1,2,6
829.829,7,2,2,7
829.83,8,2,2,7
829.83,7,2,1,6
829.831,7,5,4,7
829.831,6,5,4,6
829.832,6,3,4,4
829.833,2,0,1,2
829.833,1,0,0,1
829.834,0,0,0,1
829.834,1,2,2,3
829.835,3,2,2,2
829.835,3,2,1,2
829.836,3,2,1,1
829.837,3,2,1,2
829.837,5,4,1,1
829.838,3,2,0,0
829.838,3,2,0,2
829.839,3,1,0,1
829.839,5,4,2,3
829.84,5,6,4,3
829.841,5,6,5,2
829.841,4,7,6,3
829.842,4,9,7,1
829.842,2,6,5,0
829.843,1,6,5,0
829.843,0,5,3,-1
829.844,-2,1,2,-2
829.845,-2,0,2,0
829.845,0,1,2,0
829.846,0,3,2,1
829.846,1,2,2,3
829.847,3,1,0,3
829.847,4,1,0,3
829.848,4,0,-1,4
829.849,5,0,-1,4
829.849,4,-1,-2,5
829.85,6,0,-1,5
829.85,6,2,2,6
829.851,6,5,7,8
829.852,5,5,8,7
829.852,2,2,6,6
829.853,2,1,4,5
829.853,2,0,1,4
829.854,2,1,1,3
829.854,4,1,0,3
829.855,5,4,0,1
829.856,5,3,0,0
829.856,3,2,-2,0
829.857,2,0,-3,-1
829.857,3,1,-2,0
829.858,4,3,0,0
829.858,3,3,2,2
829.859,4,5,4,3
829.86,4,7,5,3
829.86,4,6,4,1
829.861,1,3,2,2
829.861,4,5,4,4
829.862,6,9,7,3
829.862,6,11,8,2
829.863,4,9,6,0
829.864,0,4,3,-2
829.864,-1,2,1,-3
829.865,-2,0,0,-2
829.865,-2,0,0,-2
829.866,-1,0,0,0
829.866,0,1,1,3
829.867,2,2,2,3
829.868,2,0,0,4
829.868,2,0,1,5
829.869,3,0,0,5
829.869,5,0,0,7
829.87,8,2,1,8
829.87,8,4,4,7
829.871,8,5,4,6
829.872,5,3,4,5
829.872,3,2,4,5
829.873,4,4,4,4
829.873,3,1,1,2
829.874,2,0,0,1
829.875,3,3,0,0
829.875,3,3,0,0
829.876,1,1,0,0
829.876,1,0,-1,0
829.877,1,0,-2,0
829.877,3,2,0,2
829.878,5,4,1,3
829.878,5,5,3,4
829.879,7,6,3,3
829.88,7,6,3,3
829.88,6,7,2,1
829.881,4,6,3,1
829.881,4,9,4,1
829.882,3,7,5,0
829.883,2,7,5,-1
829.883,0,5,4,-1
829.884,-1,3,3,-1
829.884,-2,2,3,0
829.885,-1,1,2,0
829.885,0,0,2,0
829.886,1,2,2,1
829.887,1,0,1,2
829.887,2,0,2,4
829.888,2,0,1,5
829.888,3,-1,0,5
829.889,4,0,0,6
829.889,5,0,0,7
829.89,7,1,2,7
829.891,9,5,4,8
829.891,8,5,5,7
829.892,6,4,3,5
829.892,5,3,2,2
829.893,3,1,0,0
829.893,2,0,0,0
829.894,1,0,-1,1
829.895,1,0,0,1
829.895,2,1,1,1
829.896,3,3,1,2
829.896,3,2,0,1
829.897,2,1,0,1
829.897,3,2,1,2
829.898,5,4,1,2
829.899,5,4,1,1
829.899,4,4,1,2
829.9,5,5,3,3
829.9,5,7,5,3
829.901,5,6,4,1
829.901,4,8,6,1
829.902,2,6,4,0
829.903,1,6,5,0
829.903,1,4,2,-1
829.904,0,4,3,0
829.904,0,3,1,0
829.905,0,2,0,0
829.906,0,3,3,1
829.906,0,2,3,0
829.907,-1,0,2,1
829.907,-1,-2,0,3
829.908,0,-4,-1,5
829.908,5,0,1,7
829.909,8,2,1,7
829.909,8,1,0,7
829.91,8,3,2,8
829.911,11,7,6,8
829.911,8,5,5,5
829.912,4,2,2,3
829.912,3,3,2,2
829.913,1,2,1,1
829.914,1,0,0,0
829.914,0,0,0,0
829.915,0,0,0,1
829.915,1,3,3,1
829.916,2,4,4,2
829.916,1,1,0,1
829.917,2,1,0,3
829.918,4,1,0,3
829.918,8,4,0,4
829.919,10,8,1,2
829.919,9,9,3,2
829.92,6,8,3,0
829.92,3,5,2,0
829.921,3,6,3,0
829.922,1,4,3,-1
829.922,-1,3,4,0
829.923,0,5,6,2
829.923,2,6,6,0
829.924,0,3,2,0
829.924,0,2,2,0
829.925,0,3,2,1
829.926,2,4,3,3
829.926,4,4,2,2
829.927,3,3,0,1
829.927,1,0,-1,1
829.928,2,0,0,3
829.928,3,-1,-1,3
829.929,1,-3,-1,4
829.93,3,-1,0,5
829.93,5,0,3,8
829.931,8,5,6,9
829.931,7,4,6,8
829.932,5,3,4,6
829.932,2,0,2,5
829.933,2,0,2,3
829.934,2,0,1,2
829.934,2,0,0,2
829.935,3,1,0,3
829.935,5,4,1,2
829.936,5,3,0,1
829.937,4,3,0,0
829.937,3,2,0,0
829.938,2,1,0,0
829.938,3,3,0,1
829.939,3,2,1,1
829.939,3,4,2,2
829.94,4,5,4,3
829.941,5,6,5,2
829.941,5,8,6,4
829.942,5,9,6,2
829.942,4,8,4,0
829.943,3,8,4,-1
829.943,-1,5,3,-2
829.944,-2,2,2,-2
829.945,-1,1,2,-1
829.945,0,0,1,0
829.946,0,2,1,1
829.946,1,1,2,2
829.947,2,1,1,3
829.947,3,1,0,4
829.948,5,0,0,5
829.949,6,0,-1,4
829.949,4,0,-1,5
829.95,6,0,0,6
829.95,6,1,1,6
829.951,8,4,4,8
829.951,7,4,4,5
829.952,5,2,2,5
829.953,5,3,3,4
829.953,3,1,0,2
829.954,3,0,0,0
829.954,1,1,0,1
829.955,2,2,0,1
829.956,2,3,1,1
829.956,3,4,2,1
829.957,2,2,0,0
829.957,3,2,0,0
829.958,3,3,1,1
829.958,4,4,1,2
829.959,3,3,1,1
829.959,3,5,3,2
829.96,5,7,4,3
829.961,6,7,5,3
829.961,5,8,6,2
829.962,3,7,5,1
829.962,2,8,5,0
829.963,1,6,4,0
829.964,0,3,2,-1
829.964,0,3,2,-1
829.965,-1,2,2,-1
829.965,-1,0,1,0
829.966,0,1,1,1
829.966,0,0,1,2
829.967,2,0,0,3
829.968,2,-1,0,5
829.968,4,0,1,7
829.969,5,0,1,8
829.969,7,0,0,7
829.97,9,2,2,7
829.97,8,4,3,7
829.971,8,6,4,6
829.972,7,4,3,4
829.972,5,3,2,2
829.973,3,0,0,1
829.973,1,0,0,0
829.974,1,0,0,0
829.974,0,0,0,0
829.975,0,0,1,0
829.976,0,0,2,2
829.976,1,0,1,4
829.977,3,2,2,4
829.977,4,3,2,5
829.978,5,5,4,4
829.978,6,5,2,2
829.979,5,5,1,2
829.98,4,6,3,1
829.98,3,5,3,1
829.981,5,9,6,2
829.981,5,9,5,1
829.982,4,8,5,0
829.982,1,6,3,-1
829.983,0,5,2,-2
829.984,-1,2,1,-2
829.984,0,3,1,-1
829.985,1,2,0,-1
829.985,1,2,0,0
829.986,0,2,2,1
829.986,1,1,2,3
829.987,2,0,0,5
829.988,7,3,0,5
829.988,7,2,0,2
829.989,3,0,0,3
829.989,2,-2,-1,4
829.99,4,0,0,5
829.99,5,2,4,8
829.991,7,5,6,8
829.992,6,4,5,6
829.992,4,3,5,4
829.993,2,1,2,2
829.993,0,0,1,2
829.994,1,0,1,2
829.995,2,1,1,2
829.995,2,2,3,2
829.996,2,2,2,2
829.996,2,1,1,1
829.997,1,1,0,2
829.997,5,4,0,2
829.998,6,5,1,1
829.998,5,4,0,0
829.999,3,3,0,0
830,3,4,2,1
830,4,5,4,3
830.001,6,8,5,3
830.001,5,8,6,2
830.002,3,7,5,1
830.003,2,6,5,0
830.003,1,7,5,0
830.004,0,5,4,0
830.004,0,2,2,0
830.005,0,1,0,0
830.005,0,1,0,0
830.006,1,1,0,0
830.007,1,0,0,1
830.007,2,0,0,3
830.008,3,0,0,4
830.008,3,-1,-1,4
830.009,2,-3,-1,5
830.009,4,-2,0,7
830.01,5,0,3,10
830.011,9,4,7,11
830.011,11,8,8,9
830.012,10,7,5,6
830.012,6,5,4,4
830.013,3,1,0,0
830.013,1,0,-1,0
830.014,0,-1,-1,0
830.015,2,0,-1,0
830.015,3,2,-1,0
830.016,2,2,0,1
830.016,2,1,0,0
830.017,2,1,0,2
830.017,3,2,1,2
830.018,4,4,2,2
830.019,5,5,3,2
830.019,4,5,3,2
830.02,4,6,4,2
830.02,3,5,4,1
830.021,2,7,6,3
830.021,3,8,7,3
830.022,2,7,6,1
830.023,1,6,5,0
830.023,1,5,4,0
830.024,1,4,3,-1
830.024,0,3,1,-1
830.025,0,0,0,-1
830.026,0,2,0,0
830.026,2,2,0,1
830.027,2,0,-1,2
830.027,5,2,0,4
830.028,6,1,-1,3
830.028,5,1,0,4
830.029,5,0,-1,4
830.03,6,0,0,4
830.03,6,3,2,6
830.031,7,6,5,6
830.031,4,2,3,4
830.032,2,0,2,3
830.032,0,0,2,3
830.033,0,0,2,4
830.034,2,1,3,5
830.034,3,2,3,5
830.035,5,1,0,3
830.035,6,3,0,4
830.036,7,6,1,2
830.036,6,4,0,0
830.037,2,2,0,0
830.038,1,2,0,0
830.038,3,4,1,0
830.039,3,4,0,0
830.039,3,5,2,0
830.04,3,6,4,2
830.04,3,5,2,1
830.041,4,7,6,2
830.042,4,8,6,1
830.042,2,7,6,1
830.043,2,6,5,1
830.043,1,4,3,0
830.044,0,2,2,-1
830.044,-1,0,0,0
830.045,0,0,0,0
830.046,1,2,1,2
830.046,3,2,1,3
830.047,3,0,0,2
830.047,3,0,0,2
830.048,1,0,0,3
830.048,3,0,1,5
830.049,5,1,2,8
830.05,7,1,2,7
830.05,7,3,2,6
830.051,6,4,4,7
830.051,5,4,5,6
830.052,4,3,4,5
830.052,2,1,3,2
830.053,1,0,0,2
830.054,3,1,0,3
830.054,6,4,0,0
830.055,2,2,0,0
830.055,1,0,0,0
830.056,1,1,0,0
830.057,2,1,0,0
830.057,3,2,0,1
830.058,3,4,1,1
830.058,5,5,3,3
830.059,5,5,2,2
830.059,5,6,2,3
830.06,4,6,4,2
830.061,5,7,6,2
830.061,6,9,6,2
830.062,2,7,5,0
830.062,0,5,4,0
830.063,0,4,3,0
830.063,0,3,2,-1
830.064,0,3,3,0
830.065,-1,1,2,0
830.065,0,1,1,0
830.066,0,1,2,2
830.066,1,2,2,3
830.067,2,0,1,4
830.067,3,0,1,5
830.068,3,0,0,5
830.069,4,-1,0,6
830.069,5,-1,0,6
830.07,6,0,0,7
830.07,9,4,4,9
830.071,9,6,5,8
830.071,8,5,3,4
830.072,5,3,2,3
830.073,5,3,0,1
830.073,2,1,0,0
830.074,1,0,-1,0
830.074,2,1,-1,0
830.075,1,0,0,0
830.076,1,1,1,1
830.076,1,0,0,2
830.077,2,1,1,2
830.077,4,3,0,2
830.078,4,3,2,3
830.078,5,5,3,4
830.079,7,6,4,3
830.08,5,7,3,2
830.08,5,5,2,0
830.081,4,7,4,1
830.081,5,10,6,1
830.082,2,8,5,0
830.082,0,5,4,-1
830.083,-2,2,3,-1
830.084,-1,3,2,0
830.084,0,3,3,0
830.085,0,3,2,1
830.085,1,2,2,1
830.086,1,2,1,1
830.086,2,1,1,3
830.087,3,1,0,3
830.088,3,0,1,4
830.088,4,0,0,4
830.089,4,0,0,4
830.089,3,0,0,5
830.09,4,0,1,6
830.09,6,4,4,6
830.091,7,5,5,6
830.092,5,3,3,4
830.092,3,1,2,4
830.093,3,0,0,2
830.093,1,0,1,2
830.094,1,1,2,4
830.094,4,2,2,3
830.095,3,1,0,3
830.096,3,1,0,3
830.096,6,3,0,2
830.097,7,6,0,0
830.097,5,4,0,0
830.098,3,3,0,0
830.098,2,2,0,0
830.099,1,3,1,0
830.1,2,4,3,1
830.1,4,6,5,3
830.101,5,8,7,4
830.101,5,10,8,2
830.102,3,8,5,0
830.102,1,6,5,0
830.103,0,5,4,0
830.104,1,5,3,0
830.104,0,2,0,-2
830.105,-1,0,0,-2
830.105,0,1,0,0
830.106,1,1,1,1
830.107,2,0,1,2
830.107,2,0,0,3
830.108,3,0,0,5
830.108,4,0,0,6
830.109,5,1,1,6
830.109,6,0,1,7
830.11,6,1,1,6
830.111,7,4,5,7
830.111,6,4,4,6
830.112,4,3,3,5
830.112,4,2,2,3
830.113,3,1,1,2
830.113,2,0,0,1
830.114,1,0,0,1
830.115,2,1,0,2
830.115,4,3,0,1
830.116,4,3,1,0
830.116,4,2,0,0
830.117,3,3,1,0
830.117,3,3,0,1
830.118,3,3,1,1
830.119,2,2,2,1
830.119,2,3,2,1
830.12,3,3,3,2
830.12,3,5,5,3
830.121,4,7,8,4
830.121,3,8,8,4
830.122,2,7,7,2
830.123,3,8,6,1
830.123,2,6,4,1
830.124,1,4,2,0
830.124,2,4,0,-1
830.125,0,1,0,-2
830.125,-1,0,0,-1
830.126,0,1,1,0
830.127,0,0,0,0
830.127,1,0,0,3
830.128,4,1,1,5
830.128,6,1,0,4
830.129,5,0,-1,4
830.13,6,0,-1,5
830.13,7,2,1,6
830.131,9,4,3,7
830.131,7,5,5,6
830.132,5,3,2,4
830.132,3,2,2,3
830.133,1,0,1,2
830.133,2,1,2,2
830.134,1,1,1,2
830.135,1,1,1,2
830.135,2,3,2,2
830.136,3,3,0,1
830.136,2,0,0,1
830.137,4,3,0,1
830.138,5,2,0,1
830.138,4,2,0,2
830.139,5,4,1,2
830.139,5,4,2,3
830.14,5,6,5,4
830.14,5,6,4,3
830.141,5,9,6,2
830.142,6,9,6,0
830.142,2,8,5,-1
830.143,0,5,4,-2
830.143,-2,3,3,-1
830.144,-2,2,1,-2
830.144,-2,1,2,0
830.145,-1,0,1,0
830.146,-1,0,2,1
830.146,0,1,2,4
830.147,2,0,1,4
830.147,3,0,1,6
830.148,5,0,2,7
830.149,5,0,1,6
830.149,5,0,0,7
830.15,5,0,0,6
830.15,6,1,3,8
830.151,9,5,5,9
830.151,11,7,5,6
830.152,8,4,2,3
830.153,6,4,0,3
830.153,8,5,0,0
830.154,3,1,-3,-3
830.154,1,2,-2,-2
830.155,2,3,-1,-2
830.155,0,1,-2,-4
830.156,-1,0,-1,-1
830.156,-1,-1,-1,0
830.157,0,-2,-2,2
830.158,4,2,2,4
830.158,7,7,6,7
830.159,8,9,7,6
830.159,7,8,7,4
830.16,7,9,6,4
830.161,6,8,6,1
830.161,4,8,5,0
830.162,1,6,4,-1
830.162,0,6,4,-1
830.163,0,5,4,-1
830.163,0,4,2,-2
830.164,-1,2,1,-2
830.164,-1,1,1,-1
830.165,-2,0,0,0
830.166,0,0,1,2
830.166,2,0,2,4
830.167,5,2,2,5
830.167,4,0,1,5
830.168,5,0,0,5
830.169,5,0,1,6
830.169,5,0,0,6
830.17,6,1,1,6
830.17,7,4,5,7
830.171,6,5,5,5
830.171,5,2,3,4
830.172,4,1,2,3
830.173,3,1,1,2
830.173,3,1,1,2
830.174,2,0,0,1
830.174,2,0,0,1
830.175,1,0,0,1
830.175,1,1,0,2
830.176,3,3,2,1
830.177,2,2,2,3
830.177,3,2,2,2
830.178,2,2,2,1
830.178,2,3,2,2
830.179,4,5,4,4
830.18,8,9,4,3
830.18,8,10,4,2
830.181,8,11,4,0
830.181,4,9,4,-2
830.182,0,4,0,-3
830.182,0,2,0,-2
830.183,0,3,1,-1
830.183,0,3,2,-1
830.184,0,3,2,0
830.185,0,1,2,0
830.185,0,0,2,1
830.186,0,1,3,2
830.186,0,0,2,4
830.187,1,0,2,5
830.188,3,0,2,7
830.188,6,1,2,8
830.189,8,2,0,7
830.189,8,1,0,8
830.19,11,3,0,6
830.19,10,6,2,3
830.191,6,3,2,3
830.192,4,2,2,2
830.192,1,1,1,1
830.193,0,0,0,0
830.193,0,0,0,1
830.194,0,0,1,1
830.194,0,-1,1,2
830.195,1,0,2,4
830.196,3,3,3,5
830.196,5,3,2,3
830.197,5,3,1,3
830.197,6,4,1,3
830.198,8,6,1,2
830.198,5,4,0,2
830.199,9,9,3,2
830.2,9,10,2,-1
830.2,2,5,0,-2
830.201,1,5,2,-1
830.201,0,5,3,-2
830.202,0,5,3,-1
830.202,0,6,5,0
830.203,1,7,6,0
830.204,0,4,3,0
830.204,0,1,0,0
830.205,0,0,0,0
830.205,0,0,1,1
830.206,-1,-1,1,3
830.206,1,0,3,5
830.207,3,1,3,5
830.208,3,0,1,6
830.208,5,0,2,7
830.209,5,0,2,7
830.209,6,1,2,7
830.21,6,1,2,7
830.21,7,4,5,8
830.211,8,5,4,5
830.212,6,4,3,4
830.212,4,3,0,2
830.213,2,0,-2,0
830.213,3,0,-2,0
830.214,1,0,0,0
830.215,1,0,0,1
830.215,2,2,2,3
830.216,5,3,1,1
830.216,3,2,0,1
830.217,4,2,0,1
830.217,4,4,0,2
830.218,5,6,2,2
830.219,5,5,1,0
830.219,4,4,1,0
830.22,1,3,2,0
830.22,0,4,4,1
830.221,2,7,8,3
830.221,1,6,8,2
830.222,0,6,8,2
830.223,0,5,6,2
830.223,0,4,5,1
830.224,1,5,4,2
830.224,2,5,3,2
830.225,4,5,1,0
830.225,3,4,0,-1
830.226,2,2,-1,0
830.227,3,1,-2,-1
830.227,2,0,-2,-1
830.228,0,-2,-2,0
830.228,0,-3,0,3
830.229,1,-3,0,6
830.229,3,-1,2,7
830.23,4,0,4,11
830.231,8,5,8,12
830.231,10,6,7,9
830.232,8,5,5,4
830.232,1,1,4,2
830.233,-3,-3,2,3
830.233,-2,-2,3,4
830.234,-1,0,4,5
830.235,2,1,4,6
830.235,5,4,4,6
830.236,8,6,3,6
830.236,11,8,0,4
830.237,16,11,-3,-1
830.237,12,10,-5,-5
830.238,7,6,-6,-9
830.239,0,0,-7,-9
830.239,-5,-2,-4,-5
830.24,-2,0,0,-1
830.24,1,3,4,1
830.241,4,8,8,5
830.241,7,10,10,6
830.242,8,11,10,4
830.243,4,8,5,0
830.243,0,3,2,0
830.244,1,4,2,0
830.244,0,3,2,-1
830.245,0,2,3,0
830.246,0,2,1,0
830.246,0,0,1,1
830.247,0,0,1,2
830.247,1,0,1,3
830.248,2,0,1,5
830.248,5,0,1,6
830.249,5,0,0,7
830.25,9,2,1,9
830.25,14,8,4,7
830.251,9,6,5,5
830.251,3,1,2,2
830.252,0,-1,-1,0
830.252,0,-3,-1,2
830.253,0,-2,0,4
830.254,3,1,3,5
830.254,4,3,4,5
830.255,5,4,3,4
830.255,5,4,4,2
830.256,2,4,3,1
830.256,1,1,1,0
830.257,0,0,-1,0
830.258,2,2,0,2
830.258,5,3,0,2
830.259,5,5,2,2
830.259,5,6,2,2
830.26,5,5,2,2
830.26,4,4,2,2
830.261,6,9,6,2
830.262,4,9,7,1
830.262,3,9,7,0
830.263,0,5,4,-1
830.263,-1,2,2,-2
830.264,-2,1,1,-1
830.264,-1,0,1,-2
830.265,-2,0,1,0
830.266,-1,0,2,2
830.266,0,0,4,5
830.267,2,1,3,5
830.267,2,0,1,5
830.268,3,0,1,7
830.268,6,1,1,7
830.269,9,2,1,8
830.27,9,2,0,8
830.27,12,4,-1,4
830.271,8,3,0,3
830.271,5,1,0,3
830.272,4,1,1,4
830.272,3,1,0,2
830.273,1,0,0,1
830.274,1,1,1,2
830.274,2,2,2,2
830.275,2,2,2,1
830.275,2,2,2,1
830.276,2,2,1,0
830.276,3,4,2,1
830.277,3,4,1,1
830.278,4,2,0,0
830.278,3,3,0,0
830.279,3,3,1,0
830.279,4,5,3,1
830.28,3,6,5,3
830.281,3,7,7,2
830.281,2,6,6,2
830.282,1,5,6,1
830.282,1,6,6,2
830.283,3,7,6,2
830.284,5,7,4,1
830.284,4,5,0,-1
830.284,2,4,-1,-4
830.285,0,1,-1,-2
830.286,0,1,0,0
830.286,0,0,0,0
830.287,0,-1,-1,1
830.287,0,-2,-1,3
830.288,2,-1,0,5
830.289,1,-1,2,6
830.289,3,0,4,9
830.29,5,0,5,10
830.29,9,5,8,13
830.291,13,8,7,12
830.291,14,10,4,5
830.292,10,6,0,0
830.293,4,2,-3,-2
830.293,0,0,-4,-3
830.294,-2,-3,-4,-2
830.294,0,0,-1,0
830.295,1,1,0,1
830.295,2,3,3,2
830.296,2,2,2,1
830.297,2,1,2,2
830.297,3,2,3,4
830.298,5,4,2,3
830.298,5,4,2,3
830.299,5,5,4,4
830.299,4,4,3,2
830.3,4,5,3,2
830.301,5,8,6,3
830.301,6,10,7,2
830.302,4,9,6,0
830.302,1,7,4,-1
830.303,0,3,2,-2
830.303,-2,2,1,-2
830.304,-1,0,0,-1
830.305,-1,0,0,0
830.305,0,0,1,1
830.306,1,1,2,2
830.306,1,0,2,3
830.307,2,0,1,5
830.307,5,0,1,6
830.308,6,0,1,6
830.309,6,0,0,6
830.309,5,0,0,6
830.31,6,2,2,7
830.31,8,6,4,7
830.311,7,5,4,5
830.311,4,3,1,2
830.312,3,2,0,2
830.313,2,1,0,1
830.313,1,0,0,1
830.314,2,1,0,1
830.314,2,1,0,2
830.315,4,2,0,1
830.315,3,2,1,2
830.316,3,2,0,2
830.317,3,2,1,1
830.317,3,2,0,1
830.318,3,3,1,3
830.318,5,4,2,2
830.319,4,4,2,1
830.32,4,5,4,3
830.32,5,5,4,2
830.321,4,9,8,3
830.321,5,8,7,2
830.322,4,8,5,0
830.322,2,7,5,0
830.323,0,4,2,-3
830.324,-3,0,0,-2
830.324,-2,0,1,0
830.325,-1,0,2,0
830.325,0,0,2,1
830.326,0,1,4,4
830.326,1,1,3,5
830.327,3,0,2,6
830.328,5,0,1,6
830.328,7,3,0,7
830.329,12,5,-1,4
830.329,9,3,-1,2
830.33,7,4,1,4
830.33,5,4,2,2
830.331,1,0,2,2
830.332,0,-1,1,2
830.332,0,0,1,1
830.333,-1,-1,2,2
830.333,-1,-1,3,5
830.334,1,1,3,6
830.334,5,4,4,7
830.335,10,7,4,7
830.336,13,9,1,2
830.336,8,6,-1,-2
830.337,2,1,-3,-3
830.337,1,1,-3,-2
830.338,2,2,0,0
830.339,4,5,0,0
830.339,4,7,3,1
830.34,4,5,2,0
830.34,4,5,3,1
830.341,4,7,4,1
830.341,3,6,3,1
830.342,4,7,4,0
830.343,0,5,5,0
830.343,-1,2,4,-1
830.344,-4,0,3,0
830.344,-3,0,5,3
830.345,0,2,5,5
830.345,3,4,5,6
830.346,5,5,4,5
830.347,5,3,2,3
830.347,5,2,0,3
830.348,4,0,-1,3
830.348,6,0,-2,2
830.349,5,0,-1,1
830.349,1,-3,-1,3
830.35,4,1,2,8
830.351,10,7,5,6
830.351,6,4,4,3
830.352,2,2,3,3
830.352,1,1,2,2
830.353,0,-1,0,1
830.353,0,0,0,2
830.354,0,0,1,2
830.355,1,2,3,4
830.355,5,5,4,3
830.356,4,3,1,2
830.356,3,2,0,2
830.357,3,3,0,3
830.357,5,4,1,3
830.358,9,7,1,2
830.359,8,7,0,0
830.359,6,6,0,-2
830.36,2,5,2,0
830.36,1,5,4,1
830.361,3,6,4,0
830.362,2,5,4,0
830.362,2,6,5,0
830.363,1,5,5,0
830.363,0,2,3,0
830.364,0,1,1,0
830.364,1,2,1,1
830.365,1,1,2,2
830.365,3,3,3,4
830.366,4,3,3,4
830.367,3,1,0,3
830.367,2,0,0,3
830.368,2,-2,-1,4
830.368,5,1,1,6
830.369,7,2,0,5
830.37,5,0,0,4
830.37,5,2,3,6
830.371,4,3,4,5
830.371,5,2,2,4
830.372,5,3,4,4
830.372,4,1,1,2
830.373,2,0,0,1
830.374,1,0,-1,1
830.374,1,0,0,1
830.375,3,5,3,2
830.375,4,6,5,2
830.376,1,1,0,0
830.376,-2,-3,-1,0
830.377,-1,-2,0,2
830.378,2,0,1,4
830.378,5,4,3,6
830.379,8,7,4,8
830.379,14,12,6,7
830.38,13,11,4,3
830.38,9,8,1,0
830.381,5,7,0,-2
830.382,1,4,0,-2
830.382,0,4,3,0
830.383,0,4,2,-1
830.383,0,3,0,-2
830.384,1,3,0,0
830.384,3,5,1,0
830.385,3,3,0,0
830.386,2,1,0,0
830.386,1,0,0,0
830.387,1,0,1,2
830.387,0,0,2,3
830.388,3,0,3,6
830.388,3,0,2,7
830.389,4,0,2,7
830.39,6,2,3,7
830.39,6,6,7,9
830.391,7,5,5,6
830.391,4,2,3,3
830.392,2,1,3,2
830.392,1,0,0,1
830.393,0,0,0,1
830.394,1,0,1,1
830.394,2,1,1,2
830.395,2,2,2,2
830.395,3,3,1,1
830.396,3,2,0,2
830.396,5,3,1,2
830.397,5,3,0,2
830.398,6,3,0,1
830.398,5,4,0,0
830.399,4,5,1,0
830.399,3,5,3,1
830.4,2,4,4,2
830.401,3,6,5,2
830.401,3,7,7,3
830.402,4,6,5,2
830.402,3,8,6,3
830.403,2,5,3,0
830.403,0,1,0,0
830.404,0,1,0,0
830.405,0,2,2,0
830.405,1,3,3,1
830.406,0,0,2,2
830.406,1,0,2,4
830.407,3,1,1,3
830.407,3,1,0,2
830.408,3,0,0,4
830.409,4,0,0,6
830.409,7,1,0,6
830.41,8,4,2,5
830.41,7,5,4,5
830.411,6,5,3,3
830.411,1,2,2,1
830.412,0,0,1,1
830.413,0,0,1,1
830.413,0,0,2,3
830.414,1,0,2,3
830.414,2,2,2,3
830.415,3,3,2,3
830.416,4,3,1,2
830.416,3,1,-1,0
830.417,4,2,0,1
830.417,6,3,0,1
830.418,6,5,1,1
830.418,5,3,0,0
830.419,3,3,1,1
830.42,4,4,2,2
830.42,5,7,4,3
830.421,7,10,6,3
830.421,4,9,7,1
830.422,2,7,6,0
830.422,0,4,4,0
830.423,0,3,3,-1
830.424,-1,1,2,0
830.424,-1,0,1,0
830.425,-1,0,1,1
830.425,-1,-3,0,3
830.426,3,1,2,5
830.426,6,3,2,6
830.427,8,6,4,7
830.428,9,6,2,6
830.428,8,4,0,2
830.429,4,0,-2,0
830.429,1,-1,-1,2
830.43,4,2,2,4
830.431,5,4,3,2
830.431,2,2,3,2
830.432,-1,0,3,3
830.432,0,0,2,2
830.433,0,0,2,2
830.433,1,1,3,3
830.434,2,2,3,4
830.434,3,3,4,5
830.435,5,5,3,4
830.436,7,6,1,1
830.436,6,4,0,0
830.437,4,3,-1,0
830.437,5,3,-3,0
830.438,5,2,-3,0
830.438,3,0,-4,0
830.439,8,6,0,1
830.44,9,8,2,0
830.44,4,6,4,1
830.441,1,5,6,2
830.441,0,4,7,1
830.442,-1,3,7,2
830.443,0,4,8,3
830.443,0,5,8,4
830.444,2,6,8,5
830.444,5,6,4,2
830.445,5,5,1,1
830.445,5,4,0,-1
830.446,1,1,0,-1
830.446,-1,-2,-1,0
830.447,-1,-2,-1,0
830.448,0,-2,-1,2
830.448,1,-1,0,5
830.449,5,0,1,8
830.449,9,3,3,9
830.45,10,6,5,8
830.45,8,5,4,6
830.451,6,5,4,5
830.452,5,4,3,4
830.452,4,3,2,1
830.453,1,0,-1,-1
830.453,0,0,-1,-2
830.454,-1,0,-1,0
830.454,1,2,2,1
830.455,2,2,1,1
830.456,1,1,1,0
830.456,2,1,0,2
830.457,3,2,1,3
830.457,4,3,1,4
830.458,5,2,1,3
830.458,4,2,2,4
830.459,7,6,3,4
830.46,7,6,4,5
830.46,8,9,6,4
830.461,5,8,5,1
830.461,3,7,5,1
830.462,3,6,4,0
830.463,1,4,1,-1
830.463,0,3,0,0
830.464,1,2,0,0
830.464,1,2,0,0
830.465,0,1,0,0
830.465,1,1,1,2
830.466,2,1,1,2
830.467,3,1,2,3
830.467,4,1,1,4
830.468,3,1,1,4
830.468,3,0,0,5
830.469,3,-3,-1,4
830.469,4,0,0,7
830.47,8,6,6,9
830.471,8,7,7,7
830.471,6,5,5,3
830.472,3,3,4,1
830.472,0,0,0,0
830.473,-1,0,1,0
830.473,0,0,1,0
830.474,1,1,2,2
830.475,2,1,1,2
830.475,1,0,0,1
830.476,3,0,-1,2
830.476,5,5,2,3
830.477,6,7,4,3
830.478,5,5,3,3
830.478,6,5,2,3
830.479,6,5,0,0
830.479,5,5,0,0
830.48,4,4,0,0
830.48,1,4,2,0
830.481,1,4,3,1
830.482,1,4,3,2
830.482,3,6,4,3
830.483,4,6,4,2
830.483,4,6,4,1
830.484,3,4,4,1
830.484,3,3,1,1
830.485,3,3,0,0
830.485,1,2,0,-1
830.486,-1,0,0,1
830.487,-1,-2,1,1
830.487,-1,-2,1,4
830.488,0,-2,2,5
830.488,1,0,4,8
830.489,4,1,4,10
830.49,10,6,6,10
830.49,13,10,7,8
830.491,13,10,3,4
830.491,9,5,-1,-1
830.492,2,1,-2,-3
830.492,-1,-1,-4,-3
830.493,-1,-2,-3,-1
830.494,0,0,-2,-2
830.494,0,0,0,0
830.495,2,3,4,3
830.495,4,6,6,4
830.496,3,3,2,2
830.496,1,1,0,1
830.497,2,1,0,2
830.498,3,3,3,3
830.498,4,4,3,4
830.499,6,5,3,5
830.499,6,6,4,4
830.5,7,6,4,4
830.501,8,10,6,4
830.501,9,11,5,0
830.502,3,6,1,-2
830.502,0,3,0,-2
830.503,-1,1,0,-1
830.503,0,1,0,0
830.504,0,1,0,-1
830.505,0,1,2,0
830.505,0,0,1,1
830.506,-1,0,2,4
830.506,1,0,2,5
830.507,4,1,2,5
830.507,5,2,3,7
830.508,7,3,3,7
830.509,8,3,2,7
830.509,7,2,1,4
830.51,5,3,3,4
830.51,3,4,6,5
830.511,2,4,6,4
830.511,2,2,4,2
830.512,0,0,0,0
830.512,0,0,0,0
830.513,0,0,1,0
830.514,0,2,2,2
830.514,1,2,2,3
830.515,6,5,2,3
830.515,8,6,0,0
830.516,4,3,-1,-2
830.517,0,0,-2,-1
830.517,0,-2,-3,0
830.518,2,0,-2,2
830.518,4,2,0,4
830.519,8,7,5,7
830.519,10,9,5,6
830.52,9,10,7,5
830.521,7,9,6,2
830.521,3,4,1,0
830.522,0,3,3,0
830.522,1,4,4,1
830.523,2,6,5,1
830.523,1,4,3,0
830.524,0,0,1,0
830.525,1,1,0,1
830.525,5,5,0,2
830.526,7,5,0,2
830.526,5,3,-1,-1
830.527,0,-1,-2,0
830.527,0,-1,0,2
830.528,3,0,0,3
830.529,3,0,2,5
830.529,5,3,3,5
830.53,5,6,7,6
830.53,4,5,7,6
830.531,4,2,4,5
830.531,3,1,1,2
830.532,1,0,0,1
830.533,0,0,1,1
830.533,1,2,3,2
830.534,1,2,2,2
830.534,3,2,1,2
830.535,2,2,2,2
830.536,2,1,3,3
830.536,2,0,0,2
830.537,3,1,0,2
830.537,6,5,1,1
830.538,6,4,1,4
830.538,6,3,-1,3
830.539,7,3,-1,3
830.54,8,6,0,2
830.54,9,9,2,2
830.541,8,12,5,2
830.541,7,11,6,0
830.542,5,10,4,-3
830.542,-2,2,0,-4
830.543,-5,-2,-1,-4
830.544,-4,0,0,-1
830.544,-1,-1,0,2
830.545,4,4,2,3
830.545,4,6,5,3
830.546,1,3,5,3
830.546,2,2,4,4
830.547,1,1,4,4
830.547,1,0,3,5
830.548,4,0,1,4
830.549,5,2,1,4
830.549,5,2,2,5
830.55,6,6,6,5
830.55,4,4,5,5
830.551,1,0,1,1
830.552,0,0,2,2
830.552,1,1,2,2
830.553,0,0,2,2
830.553,1,1,2,2
830.554,2,1,1,2
830.554,2,1,1,2
830.555,3,3,2,3
830.556,4,3,1,1
830.556,3,2,0,1
830.557,3,1,-1,0
830.557,3,1,-1,2
830.558,6,3,0,2
830.558,6,3,0,2
830.559,6,4,2,4
830.56,8,7,4,5
830.56,8,9,5,2
830.561,6,8,5,2
830.561,4,7,5,1
830.562,3,7,4,0
830.563,0,5,3,0
830.563,0,2,1,0
830.564,0,2,2,0
830.564,1,3,2,0
830.565,1,3,2,1
830.565,2,4,2,0
830.566,0,1,1,0
830.567,1,1,1,1
830.567,2,2,2,2
830.568,1,2,2,3
830.568,0,-3,-2,3
830.569,1,-5,-2,4
830.569,4,-4,-1,7
830.57,8,3,5,11
830.571,11,8,7,10
830.571,10,8,7,7
830.572,7,5,5,5
830.572,3,1,0,0
830.573,0,0,-1,0
830.573,0,-1,0,0
830.574,0,0,0,0
830.575,1,1,2,2
830.575,2,3,3,2
830.576,1,0,0,0
830.576,0,0,0,1
830.577,3,2,2,3
830.577,6,5,2,3
830.578,7,6,2,3
830.579,6,4,1,2
830.579,6,5,1,2
830.58,8,8,2,2
830.58,8,9,4,1
830.581,5,8,4,0
830.582,1,4,1,-1
830.582,0,4,1,0
830.583,1,5,3,0
830.583,1,5,3,0
830.584,0,4,5,0
830.584,-1,2,4,0
830.585,-1,1,3,1
830.586,0,1,3,3
830.586,1,1,3,4
830.587,3,1,2,4
830.587,3,0,0,5
830.588,6,2,0,5
830.588,8,2,-1,5
830.589,10,5,0,3
830.589,6,3,0,2
830.59,2,1,3,3
830.591,2,2,3,2
830.591,0,1,2,2
830.592,2,2,2,3
830.592,4,3,1,5
830.593,9,7,1,1
830.593,7,5,-1,-3
830.594,-1,0,-2,-3
830.595,-2,-1,-1,-1
830.595,0,1,1,2
830.596,2,2,2,2
830.596,3,2,1,3
830.597,3,2,1,4
830.597,5,3,3,5
830.598,5,3,2,5
830.599,6,5,4,5
830.599,6,7,5,5
830.6,6,6,5,3
830.6,7,8,6,3
830.601,5,8,5,1
830.602,3,7,3,0
830.602,1,6,3,-1
830.603,0,6,4,-1
830.603,-2,1,0,-3
830.604,-4,-4,-3,-2
830.604,-3,-4,-2,0
830.605,0,-1,0,5
830.606,4,0,3,7
830.606,6,3,5,8
830.607,6,4,6,8
830.607,7,4,5,6
830.608,5,3,3,4
830.608,5,1,0,3
830.609,3,1,0,3
830.61,3,1,1,2
830.61,1,0,1,3
830.611,2,1,2,3
830.611,2,2,2,2
830.612,1,2,2,1
830.612,1,3,2,2
830.613,2,4,3,2
830.614,1,1,0,0
830.614,0,0,0,0
830.615,0,0,0,1
830.615,2,2,2,3
830.616,4,3,3,3
830.617,5,3,0,3
830.617,7,3,1,3
830.618,7,3,0,3
830.618,7,2,-1,1
830.619,4,0,-3,1
830.619,5,1,-1,4
830.62,10,8,4,6
830.62,11,13,8,4
830.621,8,11,6,2
830.622,5,9,6,0
830.622,1,6,4,-2
830.623,-1,5,3,-3
830.623,-3,2,2,-3
830.624,-3,-1,-1,-3
830.624,-3,0,0,-1
830.625,-1,1,2,2
830.626,0,0,2,2
830.626,0,-2,0,4
830.627,1,-1,2,7
830.627,5,2,4,9
830.628,6,1,3,9
830.629,6,0,0,7
830.629,6,0,1,6
830.63,7,5,5,7
830.63,7,6,6,7
830.631,6,5,4,4
830.631,4,4,4,2
830.632,2,3,1,0
830.633,0,1,0,-1
830.633,-2,-1,-1,-2
830.634,-2,-1,-1,-1
830.634,-2,-1,0,0
830.635,0,0,1,2
830.635,1,2,4,4
830.636,4,3,4,3
830.637,2,1,3,4
830.637,3,2,2,4
830.638,4,3,2,4
830.638,6,4,2,6
830.639,10,7,2,7
830.639,16,12,2,6
830.64,17,13,0,0
830.641,9,10,0,-3
830.641,2,6,0,-4
830.642,0,5,1,-4
830.642,-1,3,1,-4
830.643,-1,3,2,-2
830.643,-1,1,1,-1
830.644,-2,0,0,0
830.645,0,2,2,1
830.645,2,2,3,2
830.646,3,3,3,3
830.646,2,1,2,3
830.647,2,0,1,4
830.647,2,0,1,6
830.648,3,-1,0,6
830.649,3,-2,0,6
830.649,6,2,3,8
830.65,9,7,8,9
830.65,8,8,8,6
830.651,3,3,3,4
830.651,2,2,2,2
830.652,1,0,1,0
830.653,0,0,0,0
830.653,0,0,-1,0
830.654,1,1,0,0
830.654,1,2,1,1
830.655,2,3,2,3
830.655,3,2,1,1
830.656,1,1,0,0
830.657,3,1,0,3
830.657,5,2,0,2
830.658,6,3,1,4
830.658,9,6,1,5
830.659,12,9,1,2
830.659,8,7,1,0
830.66,2,4,3,1
830.661,2,5,5,1
830.661,1,6,5,1
830.662,0,5,5,1
830.662,0,3,4,1
830.663,0,3,5,1
830.664,0,2,2,1
830.664,0,2,3,2
830.665,5,4,1,3
830.665,8,7,1,0
830.666,4,3,0,0
830.666,0,0,0,1
830.667,0,-2,-1,1
830.668,0,-1,0,2
830.668,1,-1,0,4
830.669,3,-1,1,6
830.669,5,1,3,7
830.67,7,4,5,7
830.67,6,4,5,5
830.671,5,3,4,5
830.672,5,4,4,4
830.672,3,3,2,3
830.673,3,1,0,0
830.673,1,0,0,0
830.674,1,0,0,0
830.674,3,3,1,1
830.675,4,2,0,0
830.676,2,0,-1,0
830.676,1,0,-1,0
830.677,4,3,0,1
830.677,6,6,2,1
830.678,5,7,3,2
830.678,5,7,3,2
830.679,6,8,4,1
830.68,4,7,3,1
830.68,4,5,3,2
830.681,4,5,2,1
830.681,2,2,0,0
830.682,1,2,1,0
830.682,0,3,3,2
830.683,0,0,2,3
830.684,0,0,3,4
830.684,1,2,5,5
830.685,2,3,5,5
830.685,2,2,4,7
830.686,6,4,5,7
830.686,8,5,2,5
830.687,9,5,-1,2
830.688,9,4,-3,0
830.688,3,0,-4,-2
830.689,1,-1,-3,0
830.689,0,0,0,1
830.69,0,1,3,3
830.69,1,3,5,3
830.691,2,3,6,4
830.692,3,5,7,5
830.692,4,4,4,3
830.693,3,4,2,0
830.693,0,0,0,0
830.694,0,1,0,0
830.695,1,3,2,1
830.695,3,2,0,1
830.696,1,-2,-4,1
830.696,3,0,-2,2
830.697,6,2,0,4
830.698,7,5,2,5
830.698,7,5,2,5
830.699,9,7,4,4
830.699,8,8,4,3
830.7,6,6,5,2
830.7,5,7,4,0
830.701,1,4,3,0
830.702,2,5,4,0
830.702,1,6,4,0
830.703,2,5,2,0
830.703,0,2,1,-1
830.704,-1,0,1,0
830.704,0,1,2,1
830.705,1,1,2,2
830.706,1,1,3,4
830.706,2,0,1,3
830.707,2,0,1,3
830.707,3,1,3,5
830.708,3,1,2,7
830.708,6,1,0,5
830.709,8,2,0,4
830.71,6,4,2,4
830.71,5,5,5,6
830.711,5,5,3,3
830.711,2,3,2,1
830.712,0,1,1,0
830.712,0,0,0,0
830.713,0,0,0,0
830.714,0,0,0,1
830.714,1,1,0,1
830.715,2,0,0,2
830.715,3,2,2,3
830.716,4,3,2,3
830.716,5,5,2,2
830.717,5,4,1,2
830.718,5,4,1,1
830.718,4,3,0,1
830.719,3,3,2,3
830.719,5,4,3,2
830.72,3,5,5,2
830.72,3,6,5,3
830.721,4,7,6,2
830.722,4,7,6,2
830.722,4,6,4,0
830.723,2,3,0,0
830.723,1,1,0,-1
830.724,2,1,0,0
830.724,2,4,1,0
830.725,3,4,2,0
830.726,2,3,2,1
830.726,0,2,2,0
830.727,0,-2,0,3
830.727,0,-2,0,4
830.728,3,0,2,4
830.728,2,1,3,5
830.729,1,0,4,8
830.73,5,3,7,10
830.73,11,7,6,7
830.731,10,8,4,3
830.731,4,4,2,2
830.732,0,-1,-1,0
830.732,0,-2,-2,-1
830.733,0,-1,-2,0
830.734,1,1,1,1
830.734,3,4,3,2
830.735,4,5,4,2
830.735,3,2,0,0
830.736,0,0,-1,0
830.736,0,-1,-1,1
830.737,2,1,1,3
830.738,5,3,2,5
830.738,7,5,4,5
830.739,8,6,3,3
830.739,7,7,4,4
830.74,8,9,5,3
830.74,8,10,6,2
830.741,6,8,3,0
830.742,2,5,2,-3
830.742,0,4,1,-3
830.743,-2,1,0,-1
830.743,-1,1,1,0
830.744,-2,0,1,1
830.745,0,0,1,1
830.745,0,1,2,2
830.746,2,0,3,5
830.746,5,2,2,6
830.747,6,2,1,5
830.747,7,2,0,4
830.748,6,1,0,3
830.749,3,0,0,3
830.749,3,0,1,4
830.75,4,3,5,6
830.75,5,4,6,6
830.751,3,3,4,4
830.751,4,3,5,3
830.752,2,3,2,3
830.753,3,2,0,1
830.753,5,3,0,0
830.754,2,3,0,-1
830.754,0,0,-1,-1
830.755,-1,-2,-2,0
830.755,0,-2,-1,1
830.756,1,-1,0,4
830.757,5,3,3,5
830.757,8,6,5,6
830.758,8,7,4,5
830.758,9,8,3,4
830.759,7,6,2,1
830.759,5,5,1,1
830.76,5,4,1,1
830.761,4,4,2,1
830.761,4,6,3,1
830.762,4,7,4,1
830.762,3,7,5,0
830.763,1,6,5,0
830.763,0,3,3,0
830.764,0,2,1,0
830.765,-1,1,1,-1
830.765,-2,0,0,1
830.766,0,0,1,2
830.766,2,0,2,5
830.767,3,0,0,5
830.767,3,-1,0,5
830.768,4,0,1,7
830.769,7,2,3,8
830.769,7,4,4,8
830.77,8,6,6,6
830.77,6,6,5,3
830.771,3,3,4,1
830.771,1,2,2,1
830.772,0,0,0,0
830.773,0,1,0,-1
830.773,0,2,1,0
830.774,1,2,1,0
830.774,0,1,0,0
830.775,1,0,0,2
830.776,4,2,0,3
830.776,9,7,1,1
830.777,5,5,0,0
830.777,0,-2,-2,1
830.778,0,-4,-3,3
830.778,6,2,1,4
830.779,8,9,6,6
830.78,9,10,9,6
830.78,7,9,8,6
830.781,6,8,6,3
830.781,3,5,3,1
830.782,1,4,2,0
830.782,1,5,3,0
830.783,2,6,5,1
830.784,2,3,1,-1
830.784,0,1,-1,-2
830.785,-3,-1,-1,-1
830.785,-2,-1,0,1
830.786,0,0,2,4
830.786,3,1,3,6
830.787,4,0,1,5
830.788,5,0,0,5
830.788,5,0,0,7
830.789,8,3,3,8
830.789,9,5,5,7
830.79,7,4,3,4
830.791,4,2,2,4
830.791,3,3,2,3
830.792,2,2,3,2
830.792,1,0,0,0
830.793,0,0,0,0
830.793,-1,0,0,0
830.794,0,2,2,2
830.794,3,5,5,3
830.795,3,4,3,2
830.796,4,2,0,1
830.796,6,5,0,2
830.797,8,5,-1,0
830.797,6,5,0,0
830.798,5,3,-1,0
830.798,5,5,1,1
830.799,6,6,2,1
830.8,4,7,3,1
830.8,5,8,4,1
830.801,3,5,4,0
830.801,2,6,4,0
830.802,0,3,4,0
830.802,0,3,5,0
830.803,0,2,3,0
830.804,-2,0,3,1
830.804,-1,0,4,3
830.805,0,1,4,5
830.805,3,1,3,5
830.806,4,2,2,6
830.807,5,2,2,6
830.807,6,0,0,5
830.808,7,1,-1,5
830.808,8,2,-2,3
830.809,6,3,0,2
830.809,5,4,3,4
830.81,5,5,6,5
830.811,3,5,4,2
830.811,1,2,2,0
830.812,0,1,1,0
830.812,0,0,0,0
830.813,0,0,1,1
830.813,1,0,0,0
830.814,2,1,0,0
830.815,2,2,1,1
830.815,3,2,2,2
830.816,4,4,2,3
830.816,4,2,1,2
830.817,4,3,0,2
830.817,4,2,0,2
830.818,5,3,1,3
830.819,5,5,3,4
830.819,6,6,4,5
830.82,7,7,4,2
830.82,5,8,5,2
830.821,4,7,5,0
830.821,2,5,4,0
830.822,1,4,3,0
830.823,0,3,1,-1
830.823,0,3,2,0
830.824,1,3,2,0
830.824,1,3,1,1
830.825,2,3,3,2
830.825,2,2,1,1
830.826,1,1,0,1
830.827,0,-2,0,2
830.827,0,-3,0,5
830.828,3,-1,0,6
830.828,5,0,1,8
830.829,6,2,3,9
830.829,10,9,9,9
830.83,9,8,5,7
830.831,8,6,2,5
830.831,10,8,1,0
830.832,3,4,0,-4
830.832,-2,0,-1,-2
830.833,-1,0,-1,-2
830.833,-2,-2,-2,-2
830.834,-1,-2,-2,0
830.835,0,0,0,0
830.835,1,1,2,3
830.836,4,4,3,4
830.836,5,3,2,3
830.837,5,3,1,3
830.838,5,3,3,4
830.838,5,4,2,4
830.839,6,5,4,7
830.839,9,7,3,5
830.84,8,8,4,3
830.84,7,8,4,1
830.841,3,6,3,0
830.841,3,8,4,0
830.842,1,5,3,-1
830.843,-2,1,1,-2
830.843,-4,0,1,-1
830.844,-2,0,2,1
830.844,0,2,4,2
830.845,0,2,4,3
830.846,1,0,2,4
830.846,2,0,2,5
830.847,5,1,0,5
830.847,7,2,0,4
830.848,5,1,0,4
830.848,5,1,1,5
830.849,5,2,2,6
830.85,7,4,4,4
830.85,5,4,4,2
830.851,1,1,2,3
830.851,2,1,1,3
830.852,3,1,0,2
830.852,3,2,1,1
830.853,2,1,0,0
830.854,1,2,1,1
830.854,2,3,3,2
830.855,3,4,2,2
830.855,3,2,0,0
830.856,2,1,0,0
830.856,1,0,0,2
830.857,7,6,3,5
830.858,11,8,1,2
830.858,7,3,-3,0
830.859,3,1,-1,1
830.859,7,8,5,4
830.86,8,11,6,3
830.86,5,9,5,0
830.861,2,6,2,-1
830.862,0,4,3,0
830.862,0,2,1,-2
830.863,-2,1,1,-1
830.863,-2,1,2,0
830.864,-1,2,4,1
830.865,0,3,5,4
830.865,1,0,4,5
830.866,3,1,2,3
830.866,2,1,2,5
830.867,5,2,2,6
830.867,5,1,1,5
830.868,5,1,0,5
830.87,5,1,0,5
830.87,5,1,2,4
830.87,5,4,4,6
830.87,5,4,5,4
830.871,4,4,3,2
830.871,2,2,2,1
830.872,1,1,1,0
830.873,-1,0,0,1
830.873,0,0,0,0
830.874,0,0,0,0
830.874,1,0,0,1
830.875,2,2,2,4
830.875,5,4,2,4
830.876,6,5,1,3
830.877,7,5,0,2
830.877,7,5,0,3
830.878,10,8,0,0
830.878,6,5,0,-1
830.879,1,3,0,0
830.88,0,3,2,0
830.88,2,5,4,1
830.881,2,6,6,3
830.881,2,5,5,3
830.882,3,5,6,3
830.882,3,6,5,2
830.883,1,3,3,2
830.883,1,2,2,2
830.884,1,2,3,2
830.885,1,0,1,3
830.885,2,-1,0,2
830.886,1,-2,-1,2
830.886,3,-2,-1,4
830.887,5,0,0,6
830.888,7,2,2,6
830.888,7,4,2,5
830.889,6,1,1,5
830.889,6,4,4,6
830.89,7,8,6,4
830.89,5,6,6,2
830.891,1,4,3,0
830.891,0,1,0,0
830.892,0,0,0,-2
830.893,-1,0,0,-1
830.893,-1,0,1,0
830.894,1,2,3,2
830.894,3,3,2,3
830.895,4,4,2,0
830.896,1,1,0,0
830.896,1,0,0,1
830.897,1,-1,-2,2
830.897,5,2,1,6
830.898,7,4,3,5
830.898,8,6,5,6
830.899,7,6,4,5
830.9,8,9,5,4
830.9,7,9,5,3
830.901,6,7,3,1
830.901,4,6,2,0
830.902,4,6,2,0
830.902,1,4,1,-1
830.903,0,3,1,-2
830.904,-1,0,0,-1
830.904,0,0,0,-1
830.905,0,0,0,1
830.905,2,2,2,2
830.906,2,3,4,4
830.906,3,3,5,5
830.907,3,3,4,4
830.908,1,0,1,3
830.908,1,-2,0,3
830.909,3,-1,0,5
830.909,7,3,3,7
830.91,9,8,7,7
830.91,9,8,5,5
830.911,6,4,1,2
830.912,2,0,-1,0
830.912,1,0,-1,0
830.913,0,0,-1,0
830.913,0,0,-1,0
830.914,1,0,0,1
830.914,1,0,1,2
830.915,0,-1,0,2
830.916,0,-1,0,4
830.916,5,4,5,6
830.917,8,9,8,6
830.917,8,11,9,6
830.918,7,7,2,2
830.918,5,3,-3,0
830.919,7,3,-3,0
830.92,9,7,0,1
830.92,9,9,1,0
830.921,4,6,1,-3
830.921,-2,3,4,-3
830.922,-7,0,5,0
830.922,-6,-1,5,0
830.923,-5,-1,7,3
830.924,-3,0,7,6
830.924,0,1,7,7
830.925,3,3,7,7
830.925,7,6,6,8
830.926,11,8,4,7
830.927,12,8,1,4
830.927,12,8,-1,0
830.928,8,4,-4,-5
830.928,-1,-3,-7,-7
830.929,-5,-5,-4,-2
830.929,-3,-1,2,2
830.93,0,1,5,4
830.931,1,0,5,6
830.931,2,0,4,7
830.932,5,2,4,5
830.932,6,4,4,4
830.933,4,2,1,3
830.933,4,1,0,4
830.934,9,6,0,3
830.935,9,7,0,0
830.935,3,2,-1,-2
830.936,0,-1,-2,-1
830.936,0,0,-1,0
830.937,2,2,0,1
830.938,2,2,1,2
830.938,6,5,2,5
830.939,10,8,3,4
830.939,9,10,6,3
830.94,7,10,4,0
830.94,2,7,5,0
830.941,2,6,4,0
830.941,0,3,1,0
830.942,0,3,2,0
830.943,4,7,4,1
830.943,1,3,2,0
830.944,0,1,1,0
830.944,-1,0,1,2
830.945,0,0,2,4
830.945,1,-2,-1,4
830.946,6,2,0,5
830.947,5,3,3,3
830.947,2,0,3,6
830.948,4,0,2,5
830.948,4,0,0,3
830.949,4,1,1,3
830.95,3,2,4,5
830.95,3,2,4,5
830.951,4,3,5,5
830.951,2,4,4,3
830.952,1,1,2,3
830.952,3,0,0,3
830.953,5,2,0,2
830.954,4,1,-1,1
830.954,2,-1,-2,0
830.955,2,0,0,1
830.955,4,2,0,2
830.956,5,4,1,4
830.956,8,5,0,1
830.957,5,4,0,0
830.958,0,2,1,2
830.958,3,1,1,3
830.959,5,3,0,4
830.959,6,4,1,2
830.96,6,7,4,3
830.961,4,5,4,2
830.961,2,5,5,2
830.962,3,5,5,2
830.962,3,6,6,3
830.963,4,7,6,1
830.963,3,9,7,0
830.964,2,11,11,1
830.964,1,10,10,0
830.965,-3,0,-1,-4
830.966,-7,-14,-13,-6
830.966,-3,-11,-13,-3
830.967,0,-2,-3,3
830.967,7,3,1,5
830.968,5,-1,0,5
830.969,5,1,3,9
830.969,10,12,15,12
830.97,10,16,17,7
830.97,2,11,14,2
830.971,-5,3,11,1
830.971,-6,2,9,1
830.972,-5,1,5,0
830.973,-7,-5,-2,0
830.973,0,-10,-11,3
830.974,13,-2,-13,6
830.974,21,8,-6,4
830.975,22,17,1,0
830.975,7,8,0,-4
830.976,0,3,0,-2
830.977,-2,-4,-2,1
830.977,2,0,0,3
830.978,5,2,0,2
830.978,6,5,1,2
830.979,5,2,0,3
830.979,6,1,-1,3
830.98,8,7,4,3
830.981,5,6,2,0
830.981,1,5,3,0
830.982,2,7,6,2
830.982,4,10,10,3
830.983,2,8,11,3
830.983,0,2,3,0
830.984,-4,-5,-4,-3
830.985,-4,-4,-4,-1
830.985,2,6,8,4
830.986,3,6,10,9
830.986,5,6,9,8
830.987,5,6,10,8
830.987,5,7,10,8
830.988,2,-1,0,3
830.989,0,-4,-5,-2
830.989,-4,-8,-4,0
830.99,-3,-5,0,4
830.99,1,0,4,9
830.991,8,4,2,7
830.991,11,7,0,1
830.992,6,2,-5,-4
830.993,0,0,-4,-3
830.993,0,2,1,0
830.994,1,3,1,3
830.994,6,5,2,4
830.995,8,6,2,3
830.995,5,2,0,2
830.996,3,0,-3,0
830.997,2,0,-3,1
830.997,6,3,0,3
830.998,9,8,4,5
830.998,10,15,11,6
830.999,9,14,12,5
831,6,18,20,7
831,5,23,25,7
831.001,3,16,12,-5
831.001,-7,3,-1,-14
831.002,-11,-3,-11,-23
831.002,-20,-16,-20,-24
831.003,-24,-30,-30,-16
831.004,-17,-40,-34,0
831.004,1,-28,-20,24
831.005,35,11,9,37
831.005,47,32,26,36
831.006,40,33,28,29
831.006,28,27,26,21
831.007,16,17,18,9
831.008,1,2,2,-7
831.008,-16,-12,-8,-18
831.009,-23,-12,-5,-12
831.009,-15,-1,11,4
831.01,-1,7,16,8
831.01,0,9,17,6
831.011,-2,4,9,0
831.012,-5,0,0,-6
831.012,-8,-1,-1,-7
831.013,-5,-1,-5,-9
831.013,-4,-4,-10,-10
831.014,-2,1,-3,-3
831.014,3,6,3,2
831.015,5,2,0,4
831.016,4,-6,-10,0
831.016,1,-11,-15,0
831.017,9,0,-6,3
831.017,17,15,5,11
831.018,25,24,11,12
831.018,27,25,9,8
831.019,19,18,3,0
831.02,9,12,4,-1
831.02,2,8,10,4
831.021,0,1,5,1
831.021,-4,0,3,-2
831.022,-8,-3,3,0
831.022,-7,-3,5,2
831.023,-4,0,10,7
831.024,-1,2,13,10
831.024,1,4,12,9
831.025,1,2,7,6
831.025,0,-2,-1,1
831.026,-3,-16,-17,-7
831.026,-5,-21,-24,-4
831.027,5,-7,-15,0
831.028,12,3,-5,4
831.028,14,5,-4,8
831.029,20,8,-3,5
831.029,17,13,3,4
831.03,13,15,10,9
831.03,13,13,10,8
831.031,7,8,10,5
831.032,0,1,10,6
831.032,-4,0,11,9
831.033,-2,0,12,11
831.033,-2,-1,9,6
831.034,-6,-8,0,0
831.034,-6,-9,-3,4
831.035,2,-6,-6,5
831.036,6,-4,-9,0
831.036,3,-4,-8,-3
831.037,0,-3,-6,-5
831.037,-3,-3,-5,-6
831.038,-3,1,1,0
831.039,6,15,13,6
831.039,10,23,20,6
831.04,6,13,10,3
831.04,5,5,0,3
831.041,12,8,-3,0
831.041,13,9,-6,-3
831.042,9,4,-8,-3
831.043,9,6,-3,0
831.043,11,15,11,8
831.044,12,15,12,8
831.044,9,9,3,1
831.045,5,8,0,-2
831.045,-3,-3,-1,3
831.046,-1,-10,-7,2
831.047,-2,-13,-9,0
831.047,-5,-12,-2,6
831.048,0,-4,9,20
831.048,10,7,24,29
831.049,16,14,26,22
831.049,3,4,18,8
831.05,-14,-15,-3,-12
831.051,-26,-17,-4,-14
831.051,-25,-8,4,-9
831.052,-18,-3,5,-10
831.052,-14,2,6,-5
831.053,-6,2,4,0
831.054,1,8,6,2
831.054,8,17,12,5
831.055,7,12,3,-2
831.055,4,6,-3,-5
831.056,7,9,-2,-1
831.056,10,11,1,3
831.057,11,10,5,7
831.057,11,10,7,8
831.058,10,7,7,12
831.059,14,8,7,14
831.059,15,7,6,11
831.06,11,6,7,11
831.06,6,0,1,4
831.061,0,-5,-6,-2
831.061,-1,-6,-11,-9
831.062,-3,-3,-8,-6
831.063,-1,-1,-5,-4
831.063,0,-2,-5,-2
831.064,2,0,-3,0
831.064,4,5,1,3
831.065,7,5,0,2
831.065,5,1,-4,-2
831.066,3,1,-5,-3
831.067,4,7,0,-4
831.067,6,12,4,-1
831.068,6,9,-1,-6
831.068,2,5,-1,0
831.069,8,13,11,12
831.07,17,22,24,21
831.07,19,24,25,21
831.071,16,13,12,12
831.071,8,1,-4,-3
831.072,-5,-14,-16,-7
831.072,-7,-20,-22,-6
831.073,0,-14,-23,-11
831.074,1,-6,-18,-14
831.074,0,4,-2,-4
831.075,4,7,0,-2
831.075,2,4,1,2
831.076,5,7,12,17
831.076,12,12,27,29
831.077,9,6,30,33
831.078,4,-1,26,31
831.078,1,-4,18,16
831.079,-11,-14,4,0
831.079,-19,-22,-13,-13
831.08,-18,-15,-10,-11
831.081,-9,-4,-2,-3
831.081,0,3,2,1
831.082,9,13,2,1
831.082,17,21,2,-6
831.083,11,23,9,-4
831.083,9,22,9,-3
831.084,5,14,4,-5
831.084,0,2,-2,-2
831.085,0,-8,-10,1
831.086,6,-2,-3,7
831.086,10,-3,-8,6
831.087,5,-17,-25,-3
831.087,6,-10,-20,0
831.088,13,3,-6,5
831.089,15,6,-2,3
831.089,12,9,4,7
831.09,20,22,14,12
831.09,22,25,18,14
831.091,17,16,16,17
831.091,14,9,10,13
831.092,11,11,13,8
831.093,5,12,10,-4
831.093,-7,0,-2,-18
831.094,-20,-12,-16,-27
831.094,-26,-22,-25,-29
831.095,-21,-14,-17,-18
831.095,-11,-10,-14,-6
831.096,2,-2,-8,5
831.097,18,9,0,13
831.097,29,28,20,19
831.098,23,25,25,18
831.098,9,10,18,16
831.099,3,0,12,14
831.099,4,7,26,28
831.1,11,8,21,19
831.101,1,-4,3,5
831.101,-4,-10,-9,-7
831.102,-10,-12,-12,-9
831.102,-6,-12,-17,-15
831.103,-8,-11,-19,-15
831.103,-4,-3,-9,-3
831.104,11,14,9,9
831.105,15,15,10,6
831.105,5,4,-1,-3
831.106,-1,-3,-11,-10
831.106,-1,-2,-11,-7
831.107,5,9,6,13
831.107,20,17,18,24
831.108,21,10,10,16
831.109,10,0,4,12
831.109,1,-8,-2,6
831.11,2,0,6,8
831.11,0,0,5,3
831.111,-3,0,9,5
831.112,-3,0,6,3
831.112,-7,-7,0,3
831.113,-3,-6,-1,2
831.113,2,0,3,5
831.114,6,6,8,7
831.114,4,0,-1,1
831.115,0,-6,-6,3
831.116,4,-6,-4,9
831.116,8,-4,-4,10
831.117,13,0,-4,6
831.117,10,1,-2,4
831.118,8,-1,-4,5
831.118,11,0,-9,0
831.119,11,3,-11,-6
831.12,11,9,-9,-6
831.12,15,17,-4,-6
831.121,17,19,-4,-12
831.121,9,18,-5,-16
831.122,7,21,2,-8
831.122,12,29,21,14
831.123,21,32,35,28
831.124,16,23,42,32
831.124,0,1,29,18
831.125,-23,-28,-2,-12
831.125,-48,-50,-22,-21
831.126,-44,-45,-19,-8
831.126,-23,-29,-12,0
831.127,-6,-11,2,13
831.128,10,5,12,22
831.128,20,10,10,20
831.129,20,7,4,16
831.129,23,16,10,14
831.13,19,12,0,-2
831.13,3,6,-1,-9
831.131,-2,8,8,1
831.132,4,9,10,6
831.132,7,6,-1,-5
831.133,1,4,-7,-17
831.133,-5,7,0,-10
831.134,0,13,7,-2
831.135,3,11,4,-4
831.135,-1,2,-3,-8
831.136,-3,3,0,-1
831.136,1,0,-2,1
831.137,3,-2,0,10
831.137,11,-1,-1,8
831.138,11,1,-5,0
831.138,2,-1,-6,-3
831.139,5,7,4,6
831.14,20,30,24,11
831.14,17,35,30,7
831.141,4,22,21,-2
831.141,-6,13,15,-7
831.142,-10,8,8,-12
831.143,-16,-2,-4,-22
831.143,-24,-7,-3,-16
831.144,-16,-1,7,2
831.144,0,6,12,13
831.145,8,-1,-4,2
831.145,1,-17,-24,-4
831.146,4,-16,-23,5
831.147,22,0,-14,8
831.147,22,0,-19,-5
831.148,12,-1,-20,-10
831.148,7,4,-7,-1
831.149,10,14,12,12
831.149,15,19,27,27
831.15,20,20,29,29
831.151,18,16,23,23
831.151,11,8,15,13
831.152,0,-8,-5,-4
831.152,-11,-15,-11,-10
831.153,-14,-12,-1,0
831.153,-9,-5,10,8
831.154,-7,-6,12,15
831.155,0,-9,0,11
831.155,2,-13,-11,3
831.156,2,-14,-17,-1
831.156,1,-14,-15,3
831.157,6,-10,-12,7
831.157,11,-3,-6,13
831.158,18,2,0,17
831.159,21,7,7,22
831.159,22,7,6,17
831.16,17,11,10,11
831.16,8,8,11,7
831.161,5,7,8,4
831.161,6,9,7,3
831.162,7,13,11,3
831.163,4,12,12,2
831.163,-7,-6,-8,-16
831.164,-22,-21,-22,-26
831.164,-22,-15,-17,-18
831.165,-8,0,1,0
831.165,3,6,12,14
831.166,9,1,7,18
831.167,11,-6,-5,11
831.167,10,-6,-4,12
831.168,11,-5,-7,11
831.168,12,-3,-4,11
831.169,15,4,4,15
831.169,22,16,9,13
831.17,23,22,10,7
831.171,16,22,15,8
831.171,10,15,12,3
831.172,-2,-1,-5,-14
831.172,-17,-12,-14,-23
831.173,-20,-9,-10,-18
831.174,-11,-1,-5,-10
831.174,0,5,-2,-6
831.175,4,9,1,-1
831.175,8,12,3,1
831.176,10,12,4,0
831.176,6,7,2,0
831.177,4,5,4,7
831.178,10,7,8,15
831.178,17,13,14,17
831.179,13,10,11,9
831.179,2,0,4,4
831.18,0,-3,-4,-5
831.18,-4,2,6,3
831.181,2,13,20,11
831.182,4,14,18,3
831.182,-4,8,8,-9
831.183,-13,1,1,-15
831.183,-17,-1,0,-14
831.184,-12,1,1,-10
831.184,-8,3,2,-9
831.185,-8,1,1,-7
831.186,-8,-1,-1,-5
831.186,-5,-2,-1,-1
831.187,0,0,0,5
831.187,3,-5,-1,10
831.188,8,-5,-3,14
831.188,13,-1,0,18
831.189,23,13,10,19
831.19,24,22,17,18
831.19,21,21,14,10
831.191,13,15,7,-1
831.191,1,6,0,-9
831.192,-5,3,-1,-9
831.192,-5,2,-1,-11
831.193,-6,1,-2,-7
831.194,-3,3,2,0
831.194,0,6,10,8
831.195,0,-6,-2,1
831.195,-5,-14,-12,-4
831.196,-6,-16,-15,-4
831.196,-3,-15,-10,9
831.197,8,-10,-9,13
831.198,15,-3,-5,15
831.198,21,7,5,22
831.199,28,16,9,18
831.199,24,18,9,8
831.2,15,18,12,7
831.201,9,10,4,-1
831.201,3,12,6,-4
831.202,0,13,12,0
831.202,0,5,0,-7
831.203,-4,1,0,-8
831.203,-5,4,5,-1
831.204,-2,2,3,0
831.205,-3,-5,-5,-2
831.205,-1,-8,-9,-1
831.206,1,-8,-11,-1
831.206,2,-9,-9,3
831.207,5,-5,-2,9
831.207,6,-5,0,13
831.208,5,-6,3,17
831.209,10,0,10,22
831.209,20,17,21,21
831.21,17,17,20,13
831.21,6,7,7,-1
831.211,-4,2,2,-7
831.211,-8,2,2,-8
831.212,-10,-1,0,-8
831.213,-10,-3,-2,-7
831.213,-8,-2,0,-5
831.214,-4,1,2,0
831.214,3,7,7,5
831.215,3,2,1,4
831.216,2,-3,-1,6
831.216,4,-7,-5,8
831.217,9,-5,-4,11
831.217,13,-3,-5,11
831.218,13,-2,-5,9
831.218,12,0,-3,8
831.219,14,5,1,9
831.219,17,17,11,11
831.22,18,23,15,6
831.221,11,18,9,-3
831.221,1,16,8,-10
831.222,-5,11,5,-12
831.222,-7,10,6,-11
831.223,-8,7,3,-11
831.224,-10,2,-1,-13
831.224,-10,0,0,-10
831.225,-8,0,0,-5
831.225,-4,0,0,0
831.226,-2,-2,0,2
831.226,0,-4,-1,4
831.227,1,-7,-4,6
831.228,3,-8,-3,12
831.228,10,-5,-1,15
831.229,15,2,3,17
831.229,20,11,9,15
831.23,16,13,9,10
831.23,12,12,9,7
831.231,10,14,10,2
831.232,3,8,5,-1
831.232,-2,2,2,-3
831.233,-5,-1,0,-4
831.233,-5,-2,-1,-3
831.234,-4,-2,-2,-3
831.234,-5,-5,-3,-2
831.235,-5,-10,-8,0
831.236,-1,-11,-10,3
831.236,5,-7,-7,8
831.237,10,-4,-5,12
831.237,14,-3,-7,10
831.238,16,1,-2,12
831.238,18,6,2,14
831.239,21,12,7,15
831.24,24,23,15,12
831.24,17,23,16,5
831.241,8,18,13,-2
831.241,0,14,10,-7
831.242,-5,9,6,-12
831.242,-12,3,1,-16
831.243,-17,-1,-1,-15
831.244,-15,-1,-1,-10
831.244,-9,0,0,-7
831.245,-6,0,0,-5
831.245,-4,-1,-1,-1
831.246,-1,-3,-3,3
831.246,3,-3,-1,8
831.247,8,-3,-1,12
831.248,10,-5,-2,14
831.248,11,-7,-4,15
831.249,16,1,3,17
831.249,20,15,15,17
831.25,18,19,18,14
831.251,12,14,12,5
831.251,3,8,6,-1
831.252,-3,0,0,-7
831.252,-7,-1,-2,-8
831.253,-8,-4,-4,-7
831.253,-6,-3,-3,-4
831.254,-3,-2,-2,-2
831.254,0,0,0,1
831.255,1,0,0,3
831.256,2,-1,0,6
831.256,3,-4,-1,6
831.257,3,-5,-3,6
831.257,4,-6,-4,7
831.258,7,0,0,9
831.259,12,6,5,13
831.259,16,10,6,13
831.26,21,19,11,10
831.26,18,22,14,5
831.261,12,23,14,-2
831.261,3,18,12,-7
831.262,-4,13,7,-12
831.263,-10,7,3,-17
831.263,-15,1,0,-16
831.264,-15,0,0,-12
831.264,-12,1,2,-7
831.265,-7,2,4,-2
831.265,-6,-3,-2,-2
831.266,-4,-7,-6,-1
831.267,0,-6,-5,3
831.267,3,-5,-3,10
831.268,7,-6,-2,14
831.268,12,-3,0,18
831.269,18,7,8,18
831.27,19,14,14,15
831.27,14,14,15,10
831.271,8,10,10,4
831.271,2,5,5,-1
831.272,-2,1,0,-4
831.272,-5,0,1,-2
831.273,-5,-3,0,-1
831.273,-3,-4,-1,1
831.274,0,-2,-1,1
831.275,0,-4,-3,2
831.275,1,-8,-8,2
831.276,5,-6,-9,4
831.276,7,-4,-5,9
831.277,12,-1,-1,14
831.277,15,-1,-3,13
831.278,15,0,-1,11
831.279,15,4,2,13
831.279,19,13,5,10
831.28,20,21,13,8
831.28,14,21,14,1
831.281,4,17,12,-5
831.282,-5,10,6,-11
831.282,-10,7,6,-12
831.283,-12,4,4,-7
831.283,-5,6,0,-8
831.284,-3,6,0,-11
831.284,-8,0,0,-9
831.285,-9,-3,-4,-6
831.286,-4,-3,-5,-5
831.286,-3,-3,-3,-1
831.287,-2,-4,0,3
831.287,-3,-8,0,7
831.288,0,-9,1,11
831.288,1,-5,6,16
831.289,11,10,20,24
831.29,20,22,26,24
831.29,19,21,21,17
831.291,13,16,16,11
831.291,7,9,11,2
831.292,-3,1,2,-5
831.292,-12,-8,-3,-6
831.293,-13,-13,-11,-10
831.294,-9,-12,-15,-13
831.294,-8,-8,-13,-10
831.295,-4,-8,-13,-5
831.295,4,-2,-12,2
831.296,19,8,-7,3
831.296,18,9,-1,4
831.297,9,2,-1,9
831.298,15,3,0,14
831.298,24,11,0,13
831.299,27,18,6,11
831.299,23,25,15,5
831.3,10,23,20,2
831.3,0,17,16,-2
831.301,-2,16,15,-5
831.302,-5,11,8,-9
831.302,-6,9,0,-17
831.303,-10,4,-4,-22
831.303,-14,1,-4,-21
831.304,-16,1,0,-16
831.305,-20,-4,2,-9
831.305,-18,-9,0,-1
831.306,-8,-5,2,8
831.306,4,0,5,13
831.307,7,-2,1,10
831.307,1,-10,-1,15
831.308,7,-11,-2,21
831.308,17,-5,-1,21
831.309,23,11,12,19
831.31,14,10,14,20
831.31,19,9,5,15
831.311,27,17,2,9
831.311,25,18,0,-6
831.312,2,4,-5,-11
831.312,-6,-2,-4,-11
831.313,-12,-6,-3,-9
831.314,-11,-5,-1,-5
831.314,-8,-3,1,0
831.315,-5,-8,-5,0
831.315,0,-9,-9,1
831.316,4,-7,-10,2
831.317,5,-6,-6,10
831.317,10,-6,-7,17
831.318,27,2,-11,18
831.318,42,20,-4,15
831.319,40,29,6,11
831.319,35,37,15,4
831.32,17,32,16,-9
831.321,-5,19,12,-19
831.321,-19,13,14,-24
831.322,-30,5,12,-23
831.322,-32,2,12,-18
831.323,-27,0,11,-15
831.323,-26,-1,10,-11
831.324,-24,-4,9,-6
831.325,-18,-3,8,-3
831.325,-14,-4,6,0
831.326,-9,-2,10,6
831.326,-7,-4,14,12
831.327,-12,-19,5,28
831.327,19,-6,0,35
831.328,49,18,1,21
831.329,36,23,11,13
831.329,18,21,19,9
831.33,4,15,18,2
831.33,-8,2,10,-2
831.331,-6,9,10,-8
831.332,-12,5,9,-9
831.332,-16,1,7,-3
831.333,-2,5,-1,-11
831.333,-4,0,-12,-21
831.334,-11,-3,-11,-14
831.334,2,11,-1,-3
831.335,15,20,1,-1
831.336,17,21,1,-13
831.336,-5,5,0,-16
831.337,-21,-9,-1,-7
831.337,-13,-7,0,0
831.338,0,3,5,9
831.338,17,18,11,8
831.339,18,25,17,4
831.339,12,24,13,0
831.34,11,23,10,-4
831.341,11,29,13,-9
831.341,5,30,15,-15
831.342,-3,26,17,-19
831.342,-16,15,12,-20
831.343,-25,0,2,-22
831.344,-25,-4,0,-17
831.344,-17,1,4,-10
831.345,-10,6,11,-3
831.345,-10,0,8,2
831.346,-8,-7,1,0
831.346,-9,-14,-3,5
831.347,-3,-12,-1,14
831.348,9,-3,3,20
831.348,16,1,6,20
831.349,17,8,14,20
831.349,12,7,14,17
831.35,12,10,12,13
831.35,11,11,10,8
831.351,8,8,6,3
831.352,2,1,-1,-1
831.352,-2,-4,-6,-4
831.353,0,-4,-8,-4
831.353,1,-3,-6,0
831.354,6,-1,-8,4
831.354,15,1,-10,2
831.355,16,2,-12,-2
831.356,5,-4,-11,-1
831.356,0,-10,-11,2
831.357,2,-10,-7,6
831.357,5,-8,-3,9
831.358,7,-2,2,15
831.359,14,5,8,21
831.359,24,16,13,17
831.36,21,20,18,12
831.36,12,16,15,6
831.361,6,14,13,0
831.361,0,9,7,-4
831.362,-4,6,4,-8
831.363,-8,1,0,-9
831.363,-9,-3,-4,-10
831.364,-8,-3,-4,-9
831.364,-9,-5,-4,-6
831.365,-6,-5,-3,0
831.365,0,0,0,3
831.366,3,0,1,6
831.367,4,-3,0,8
831.367,5,-7,-4,9
831.368,8,-7,-5,12
831.368,13,-3,-2,16
831.369,17,3,4,17
831.369,15,2,2,15
831.37,15,5,3,12
831.37,14,10,8,8
831.371,8,8,6,3
831.372,2,3,2,1
831.372,2,1,-1,-1
831.373,0,0,-4,-4
831.373,-4,-7,-8,-4
831.374,-3,-6,-7,-1
831.375,0,-4,-4,1
831.375,2,-2,-2,5
831.376,5,-3,-5,6
831.376,7,-5,-5,8
831.377,10,-2,-4,11
831.378,15,0,-2,12
831.378,17,6,2,13
831.379,17,9,5,11
831.379,16,12,8,9
831.38,14,15,10,3
831.38,6,11,8,0
831.381,1,11,8,-2
831.382,0,9,5,-5
831.382,-5,4,2,-8
831.383,-7,0,-1,-10
831.383,-8,-1,-2,-6
831.384,-6,-1,0,-3
831.384,-2,3,3,-1
831.385,-2,0,2,0
831.385,-6,-7,-3,0
831.386,-8,-18,-9,6
831.387,3,-9,-3,13
831.387,11,-2,1,17
831.388,15,0,3,18
831.388,16,0,1,19
831.389,20,6,4,18
831.39,21,8,4,12
831.39,15,5,0,8
831.391,13,8,1,4
831.391,8,7,1,0
831.392,1,3,0,-3
831.392,-4,-3,-3,-5
831.393,-7,-7,-6,-4
831.394,-3,-5,-5,-2
831.394,0,0,0,0
831.395,-3,-3,0,0
831.395,-4,-6,0,4
831.396,0,-4,0,8
831.396,9,0,0,13
831.397,20,8,0,14
831.398,28,17,2,9
831.398,19,13,4,3
831.399,8,8,3,0
831.399,1,6,5,-1
831.4,1,10,8,0
831.4,2,12,9,-2
831.401,3,14,8,-5
831.402,0,11,5,-10
831.402,-7,4,0,-12
831.403,-9,1,-2,-10
831.403,-5,3,0,-6
831.404,-1,6,2,-4
831.404,-1,3,0,-4
831.405,-5,-3,-2,-3
831.406,-6,-6,0,0
831.406,-4,-6,1,7
831.407,0,-5,3,12
831.407,6,-5,1,16
831.408,11,-4,0,17
831.409,15,1,3,16
831.409,17,9,10,17
831.41,16,10,10,14
831.41,13,9,8,9
831.411,9,7,5,4
831.411,2,0,-2,-4
831.412,-4,-3,-4,-5
831.413,-5,-4,-3,-2
831.413,0,1,0,1
831.414,4,5,0,-2
831.414,0,2,0,-1
831.415,-2,-2,-2,0
831.415,0,0,0,0
831.416,0,-1,-1,1
831.417,0,-1,2,3
831.417,-1,-2,4,7
831.418,3,2,8,12
831.418,10,8,8,11
831.419,13,12,10,9
831.419,14,17,13,7
831.42,12,19,14,1
831.42,5,16,9,-6
831.421,-3,10,6,-11
831.422,-9,5,4,-11
831.422,-12,1,2,-6
831.423,-3,3,0,-7
831.423,-2,3,-1,-9
831.424,-7,-1,-2,-6
831.425,-4,0,0,-1
831.425,0,-1,-1,0
831.426,0,-1,-1,2
831.426,1,-4,-3,5
831.427,5,-3,-1,8
831.427,7,-2,1,12
831.428,9,-1,2,14
831.429,13,4,7,15
831.429,13,9,10,12
831.43,12,9,10,9
831.43,8,7,7,5
831.431,5,5,5,3
831.431,2,3,1,-1
831.432,-2,0,0,-3
831.433,-4,-4,-3,-3
831.433,-1,0,0,0
831.434,0,0,1,0
831.434,1,2,2,2
831.435,1,0,0,2
831.435,3,0,-1,1
831.436,1,-1,0,2
831.437,2,0,1,6
831.437,8,2,0,6
831.438,9,7,5,4
831.438,2,5,8,6
831.439,5,7,10,10
831.439,13,17,12,9
831.44,17,21,9,2
831.441,13,19,4,-6
831.441,3,14,2,-12
831.442,-7,6,0,-15
831.442,-14,0,-1,-15
831.443,-15,-3,-2,-11
831.443,-10,-1,0,-5
831.444,-4,1,2,2
831.445,3,4,2,3
831.445,6,2,0,2
831.446,4,-1,-4,2
831.446,5,-2,-4,5
831.447,7,-1,-1,8
831.447,7,-3,-2,9
831.448,7,-3,0,11
831.449,9,2,5,14
831.449,12,8,10,13
831.45,12,9,11,12
831.45,8,8,9,8
831.451,5,3,4,3
831.451,0,0,0,0
831.452,-2,-2,-1,-1
831.453,-2,-4,-3,0
831.453,0,-2,-2,1
831.454,1,-2,-3,2
831.454,3,0,-2,2
831.455,3,0,0,2
831.456,3,0,0,5
831.456,4,0,-1,6
831.457,6,0,0,8
831.457,10,3,0,8
831.458,13,8,4,7
831.458,11,10,5,6
831.459,10,11,7,4
831.46,8,12,9,1
831.46,2,9,6,-3
831.461,-2,7,5,-4
831.461,-5,5,4,-5
831.462,-4,4,4,-4
831.462,-4,2,3,-3
831.463,-4,0,0,-4
831.464,-3,-1,0,0
831.464,2,2,1,1
831.465,3,0,0,1
831.465,0,-2,-2,2
831.466,1,-5,-4,7
831.466,8,-4,-6,9
831.467,15,2,-3,7
831.468,11,0,-2,7
831.468,7,-2,0,10
831.469,12,6,7,11
831.469,9,6,7,8
831.47,4,5,8,7
831.47,3,5,9,6
831.471,2,5,7,4
831.472,0,1,3,1
831.472,-1,0,1,0
831.473,0,0,-1,0
831.473,4,2,-1,-1
831.474,3,3,0,-2
831.474,0,0,-2,-2
831.475,0,-2,-3,0
831.476,4,1,-4,1
831.476,7,3,0,2
831.477,7,5,1,4
831.477,8,6,3,3
831.478,6,7,3,2
831.479,3,5,4,1
831.479,3,9,9,4
831.48,7,15,13,3
831.48,5,16,13,0
831.482,1,13,11,-3
831.482,-4,8,8,-6
831.482,-8,3,5,-7
831.483,-8,0,3,-4
831.483,-6,0,0,-3
831.484,-4,0,0,-3
831.484,-3,-1,-1,0
831.485,0,0,0,2
831.485,1,-1,0,3
831.486,1,-3,0,6
831.487,4,-2,0,9
831.487,5,-4,-1,10
831.488,8,-2,0,10
831.488,8,-1,2,12
831.489,12,8,11,15
831.489,14,11,12,15
831.49,15,10,6,11
831.491,18,14,2,0
831.491,6,5,-2,-6
831.492,-5,-3,-5,-6
831.492,-5,-5,-6,-4
831.493,-3,-3,-4,-1
831.493,3,2,-2,0
831.494,3,3,1,-1
831.495,0,1,0,0
831.495,0,0,0,2
831.496,2,0,0,2
831.496,3,0,0,3
831.497,6,3,2,7
831.497,11,7,5,9
831.498,14,11,6,8
831.499,15,14,4,2
831.499,12,15,7,-1
831.5,4,14,8,-3
831.5,0,11,9,-4
831.501,-4,9,7,-8
831.501,-9,2,3,-10
831.502,-10,1,2,-8
831.503,-9,1,3,-4
831.503,-6,1,4,-1
831.504,-2,3,4,1
831.504,0,3,4,1
831.505,0,0,1,2
831.506,3,0,0,5
831.506,6,0,0,8
831.507,11,1,-3,7
831.507,11,0,-6,4
831.508,9,-1,-3,5
831.508,9,2,0,8
831.509,12,9,9,10
831.51,8,9,9,6
831.51,4,5,5,2
831.511,0,2,3,1
831.511,0,1,1,0
831.512,1,1,0,0
831.512,0,1,0,-1
831.513,-1,0,0,-1
831.514,-2,-2,0,0
831.514,1,1,1,1
831.515,0,0,0,2
831.515,2,0,0,2
831.516,4,2,1,4
831.516,5,3,3,4
831.517,5,2,2,5
831.518,8,4,0,4
831.518,9,5,1,4
831.519,7,9,7,4
831.519,7,14,14,5
831.52,4,12,12,0
831.521,-2,7,8,-2
831.521,-4,5,7,0
831.522,1,9,6,-3
831.522,0,8,5,-5
831.523,-6,0,0,-5
831.523,-5,0,-1,-3
831.524,-1,0,-3,-1
831.524,1,1,0,0
831.525,1,0,0,1
831.526,2,-2,-2,3
831.526,3,-2,-1,6
831.527,5,-2,0,7
831.527,6,-2,-1,9
831.528,6,-2,0,11
831.529,10,3,5,12
831.529,12,8,8,10
831.53,8,6,7,7
831.53,4,3,5,5
831.531,3,1,4,6
831.531,6,3,1,3
831.532,4,3,1,-1
831.532,-2,-3,-2,-3
831.533,-4,-5,-2,1
831.534,2,0,0,3
831.534,9,5,0,0
831.535,2,-1,-5,0
831.535,1,-1,-1,3
831.536,6,1,0,5
831.536,8,4,1,5
831.537,8,6,3,5
831.538,7,8,4,4
831.538,6,7,3,3
831.539,4,5,3,2
831.539,5,9,6,2
831.54,2,7,5,0
831.541,2,9,7,0
831.541,2,10,8,0
831.542,0,7,6,-2
831.542,-2,4,2,-4
831.543,-6,-1,0,-2
831.543,-1,2,1,0
831.544,2,3,1,0
831.545,0,0,0,0
831.545,0,-2,-1,1
831.546,1,-4,-3,3
831.546,4,-3,-2,6
831.547,6,-2,-2,9
831.547,8,-1,-1,9
831.548,9,0,0,10
831.549,10,4,6,10
831.549,10,7,8,10
831.55,7,7,8,8
831.55,4,2,4,5
831.551,3,2,1,2
831.551,1,1,0,-1
831.552,-2,0,0,0
831.553,0,0,0,1
831.553,4,2,1,2
831.554,4,2,1,2
831.554,4,1,-1,1
831.555,4,0,-3,0
831.556,3,0,-3,1
831.556,4,0,-4,0
831.557,5,0,-2,3
831.557,7,1,-1,5
831.558,12,7,1,8
831.558,17,13,4,5
831.559,15,16,7,2
831.56,8,14,7,-1
831.56,1,8,5,-5
831.561,-3,6,4,-6
831.561,-5,5,5,-6
831.562,-8,4,6,-3
831.562,-7,1,5,-1
831.563,-5,0,2,0
831.563,-3,-1,1,0
831.564,-2,-1,2,3
831.565,0,-1,2,5
831.565,3,0,2,7
831.566,4,-1,0,8
831.566,7,-1,-1,9
831.567,9,-2,-1,9
831.568,9,-2,-2,10
831.568,10,-1,-1,10
831.569,14,7,6,11
831.569,10,6,6,10
831.57,11,7,5,4
831.57,4,3,4,2
831.571,-1,-1,0,0
831.572,-4,-3,0,0
831.572,-3,-2,0,0
831.573,-1,-1,0,0
831.573,1,1,1,3
831.574,4,3,2,4
831.574,5,2,0,2
831.575,3,0,-1,0
831.576,1,-1,-3,1
831.576,3,-1,-3,4
831.577,6,1,0,7
831.577,10,6,2,7
831.578,10,7,4,6
831.578,10,6,3,5
831.579,9,10,7,5
831.58,8,12,7,2
831.58,5,11,7,-1
831.581,0,10,6,-4
831.581,-2,6,4,-5
831.582,-4,5,4,-5
831.583,-5,2,3,-4
831.583,-4,0,0,-4
831.584,-3,0,0,-2
831.584,-2,0,0,0
831.585,-1,-2,0,2
831.585,0,-2,0,4
831.586,3,-2,0,6
831.586,4,-3,0,7
831.587,6,-3,0,10
831.588,7,-2,1,12
831.588,9,0,2,13
831.589,15,7,7,14
831.589,20,14,7,9
831.59,13,10,4,3
831.591,4,3,1,0
831.591,-2,-2,-1,-3
831.592,-4,-3,-1,-1
831.592,-2,-2,-1,-1
831.593,0,0,0,0
831.593,1,2,1,1
831.594,4,4,2,3
831.595,4,1,-1,3
831.595,9,3,-3,1
831.596,9,4,-2,1
831.596,7,3,-2,0
831.597,4,2,-1,0
831.597,2,2,0,0
831.598,1,2,2,3
831.599,3,5,6,6
831.599,7,12,13,7
831.6,8,13,12,3
831.6,3,10,8,0
831.601,0,8,6,-1
831.601,0,6,5,-3
831.602,0,6,4,-3
831.603,-2,2,0,-4
831.603,-4,0,1,-2
831.604,-3,0,0,-1
831.604,0,1,0,0
831.605,0,0,0,2
831.605,1,-1,-1,3
831.606,2,-2,-1,4
831.607,3,-3,-2,5
831.607,4,-3,0,7
831.608,5,-2,0,10
831.608,7,1,4,12
831.609,11,7,10,13
831.609,9,7,10,10
831.61,8,6,6,6
831.611,5,5,5,4
831.611,4,2,0,2
831.612,5,2,-1,-1
831.612,2,2,-2,-3
831.613,0,0,-2,-3
831.614,-2,0,0,0
831.614,2,1,0,1
831.615,4,1,-2,-1
831.615,1,0,-2,0
831.616,2,0,0,3
831.616,5,2,0,2
831.617,5,2,0,3
831.617,5,3,1,4
831.618,8,8,7,5
831.619,8,11,9,6
831.619,8,14,11,4
831.62,6,12,8,1
831.62,2,8,4,0
831.621,4,7,1,-3
831.622,1,6,1,-5
831.622,-3,1,-1,-4
831.623,-3,0,-1,-4
831.623,-3,0,0,-2
831.624,-2,0,2,0
831.624,-3,-2,1,4
831.625,3,0,0,6
831.626,6,1,2,5
831.626,2,-1,2,7
831.627,3,-1,2,8
831.627,5,-1,0,7
831.628,4,0,1,9
831.628,9,5,5,10
831.629,13,12,9,8
831.63,9,9,8,4
831.63,6,7,5,2
831.631,3,5,1,-3
831.631,-1,1,-1,-4
831.632,-1,0,-3,-4
831.632,-1,0,-2,-4
831.633,-3,-2,-3,-2
831.634,-1,-2,-1,0
831.634,-1,-3,-1,1
831.635,0,-5,-2,4
831.635,4,1,4,10
831.636,9,8,9,10
831.637,11,9,8,8
831.637,7,4,3,5
831.638,5,3,3,6
831.638,7,6,4,4
831.639,4,6,5,3
831.639,3,6,6,1
831.64,1,5,5,2
831.641,4,9,7,3
831.641,9,13,5,0
831.642,7,11,1,-6
831.642,0,5,0,-7
831.643,-5,1,0,-6
831.643,-5,-1,-1,-6
831.644,-7,-5,-3,-4
831.645,-5,-7,-3,0
831.645,0,-3,0,5
831.646,5,0,3,8
831.646,7,1,3,10
831.647,8,1,2,10
831.647,8,0,0,9
831.648,10,0,0,9
831.649,12,7,6,9
831.649,10,7,5,5
831.65,5,5,5,3
831.65,2,4,5,3
831.651,1,1,2,0
831.651,0,0,1,0
831.652,1,1,0,0
831.653,1,1,-1,0
831.653,2,2,0,2
831.654,6,6,1,2
831.654,8,5,-1,-2
831.655,1,1,-3,-3
831.655,-2,-4,-4,-1
831.656,0,-3,-3,2
831.657,3,0,0,3
831.657,6,3,2,6
831.658,7,7,6,7
831.658,7,8,8,7
831.659,7,7,7,7
831.659,7,9,9,5
831.66,5,9,8,3
831.661,4,10,8,0
831.661,1,8,6,0
831.662,0,4,1,-2
831.662,1,3,-2,-4
831.663,1,3,-2,-6
831.663,-3,0,-1,-3
831.664,-2,0,0,0
831.665,-2,-1,0,1
831.665,0,-2,0,3
831.666,0,-2,0,5
831.666,3,0,1,9
831.667,6,0,2,10
831.667,8,-1,0,9
831.668,10,0,0,9
831.669,13,7,6,9
831.669,10,7,5,6
831.67,7,6,5,5
831.67,5,5,3,2
831.671,4,4,0,-1
831.672,0,0,-2,-4
831.672,-1,0,-1,-2
831.673,0,1,0,-2
831.673,-1,0,0,0
831.674,0,1,1,0
831.674,0,0,-1,0
831.675,1,0,0,1
831.676,3,1,0,3
831.676,4,2,2,4
831.677,4,0,0,5
831.677,6,2,2,5
831.678,8,6,5,7
831.678,10,9,7,6
831.679,8,11,9,5
831.68,7,12,10,2
831.68,3,10,8,-1
831.681,-1,7,7,-3
831.681,-4,3,5,-2
831.682,-5,0,1,-3
831.682,-5,-1,0,-2
831.683,-2,-1,0,0
831.684,0,1,2,2
831.684,2,2,2,4
831.685,6,4,0,4
831.685,8,3,-1,1
831.686,3,-1,-3,1
831.686,3,-1,-1,3
831.687,4,-2,-1,4
831.688,4,-2,0,8
831.688,9,4,3,9
831.689,12,8,7,9
831.689,8,7,5,5
831.69,5,4,4,4
831.69,3,3,3,2
831.691,3,1,0,0
831.692,4,2,-2,0
831.692,6,4,-2,-2
831.693,2,2,-2,-4
831.693,-3,-1,-2,-3
831.694,-2,-2,-1,0
831.694,-1,-2,-1,0
831.695,0,-1,0,3
831.696,6,2,2,7
831.696,10,5,5,7
831.697,7,3,2,4
831.697,4,3,2,5
831.698,6,5,5,6
831.698,7,8,7,5
831.699,7,10,9,6
831.7,6,10,8,4
831.7,6,11,7,0
831.701,0,7,5,-2
831.701,-1,5,4,-3
831.702,-2,2,2,-3
831.703,-4,0,0,-2
831.703,-1,0,0,0
831.704,-1,0,0,-1
831.704,-1,0,0,0
831.705,-2,-1,0,2
831.705,0,-2,2,6
831.706,3,0,3,8
831.707,6,1,3,8
831.707,6,0,1,8
831.708,7,0,1,10
831.708,11,5,4,11
831.709,16,11,7,8
831.709,13,11,4,1
831.71,4,4,1,-1
831.711,0,1,0,-2
831.711,-3,0,0,-3
831.712,-3,-1,-1,-2
831.712,-2,-1,0,0
831.713,0,0,0,2
831.713,4,3,1,2
831.714,4,3,1,2
831.715,3,0,-1,1
831.715,3,1,0,2
831.716,4,1,0,4
831.716,6,3,2,4
831.717,6,3,1,3
831.717,6,6,3,5
831.718,8,8,5,4
831.719,8,8,5,2
831.719,6,9,5,1
831.72,3,9,5,-1
831.72,2,8,4,-2
831.721,1,9,5,-1
831.721,0,8,6,-2
831.722,0,6,4,-3
831.723,-4,2,1,-2
831.723,-4,0,0,-2
831.724,-3,0,1,0
831.724,-1,0,1,1
831.725,-1,-3,0,4
831.725,1,-2,0,6
831.726,4,-1,0,8
831.727,6,-2,0,11
831.727,13,1,0,12
831.728,17,7,2,8
831.728,10,7,5,7
831.729,6,6,6,4
831.729,3,4,4,2
831.73,0,3,3,0
831.731,0,2,4,0
831.731,-2,-1,0,-1
831.732,-2,-2,-2,0
831.732,0,0,0,1
831.733,3,3,2,2
831.733,5,6,3,2
831.734,2,1,0,0
831.735,-1,-4,-5,0
831.735,0,-3,-2,2
831.736,4,3,2,4
831.736,6,6,6,7
831.737,5,4,3,7
831.738,7,4,3,9
831.738,13,9,3,6
831.739,13,11,4,2
831.739,8,10,5,1
831.74,5,8,5,2
831.74,9,14,5,-1
831.741,3,8,2,-7
831.742,-6,1,-1,-9
831.742,-9,-2,-1,-6
831.743,-7,0,2,-1
831.743,-2,2,3,1
831.744,0,3,2,0
831.744,1,2,1,1
831.745,1,1,2,3
831.746,2,0,1,6
831.746,6,0,0,6
831.747,5,0,-1,4
831.747,4,-2,-1,5
831.748,5,1,1,8
831.748,10,9,9,10
831.749,10,10,10,6
831.75,5,5,5,1
831.75,-1,1,3,0
831.751,-1,0,1,0
831.751,-1,0,2,1
831.752,0,0,1,1
831.752,0,0,0,0
831.753,0,1,0,2
831.754,3,3,2,4
831.754,4,2,0,2
831.755,3,0,-2,3
831.755,6,0,-4,2
831.756,7,2,-1,2
831.757,7,1,-1,4
831.757,8,3,1,5
831.758,8,5,3,6
831.758,8,8,5,5
831.759,9,12,8,5
831.759,9,13,8,1
831.76,3,9,5,-1
831.76,1,7,3,-3
831.761,-1,5,2,-4
831.762,-2,2,1,-4
831.762,-4,0,0,-3
831.763,-3,1,1,-1
831.763,-2,0,1,0
831.764,-1,0,1,1
831.765,0,0,3,4
831.765,0,-3,0,5
831.766,2,-6,-3,5
831.766,4,-4,-1,8
831.767,7,-1,0,10
831.767,10,2,4,14
831.768,13,4,3,13
831.768,17,13,8,10
831.769,12,11,7,5
831.77,4,5,4,1
831.77,0,0,1,0
831.771,-1,-1,-2,-1
831.771,2,2,-2,-3
831.772,1,1,-2,-2
831.773,-1,0,-2,-1
831.773,0,0,-1,0
831.774,1,1,0,0
831.774,0,0,0,1
831.775,3,2,0,2
831.775,5,2,1,3
831.776,4,3,1,3
831.777,3,2,0,3
831.777,5,3,2,4
831.778,8,7,5,6
831.778,11,10,7,7
831.779,12,14,10,5
831.779,8,10,6,0
831.78,2,6,4,-2
831.781,-1,4,3,-3
831.781,-3,2,3,-1
831.782,-3,1,2,-1
831.782,-1,2,1,-1
831.783,-1,1,1,-1
831.783,0,0,2,1
831.784,1,3,3,3
831.785,3,2,2,3
831.785,3,1,0,3
831.786,4,0,-2,3
831.786,4,0,-1,4
831.787,4,-2,-1,5
831.788,5,-1,-2,6
831.788,6,0,1,6
831.789,6,4,6,7
831.789,2,1,7,8
831.79,3,3,8,9
831.79,5,4,8,7
831.791,4,4,4,2
831.792,1,0,1,1
831.792,0,0,0,1
831.793,1,0,-1,1
831.793,6,5,1,2
831.794,7,5,0,-1
831.794,1,1,-2,-2
831.795,0,0,-1,0
831.796,1,-1,-3,0
831.796,1,0,-1,2
831.797,2,0,-1,3
831.797,6,4,4,7
831.798,8,7,6,8
831.798,9,8,6,7
831.799,11,12,9,6
831.799,8,11,7,2
831.8,7,11,4,2
831.801,12,15,2,-3
831.801,5,9,-2,-9
831.802,-3,1,-4,-10
831.802,-7,-2,-3,-8
831.803,-5,0,0,-3
831.804,-3,0,1,0
831.804,-3,-1,1,1
831.805,-1,0,3,4
831.805,0,-2,3,6
831.806,1,-1,4,10
831.806,4,0,4,11
831.807,6,0,4,10
831.808,8,1,4,11
831.808,12,8,8,10
831.809,10,7,7,8
831.809,7,6,5,4
831.81,3,2,1,1
831.81,0,0,0,0
831.811,0,0,0,0
831.812,0,0,0,0
831.812,1,0,-1,-1
831.813,0,1,0,0
831.813,2,2,0,0
831.814,2,1,0,0
831.815,2,0,0,2
831.815,3,1,0,2
831.816,4,1,0,3
831.816,5,3,1,4
831.817,5,3,2,5
831.817,6,5,4,6
831.818,6,6,4,5
831.818,8,8,7,4
831.819,7,12,9,4
831.82,5,10,7,2
831.82,4,10,6,-1
831.821,0,5,2,-2
831.821,0,3,1,-1
831.822,2,3,0,-2
831.823,4,6,0,-3
831.823,0,1,-2,-3
831.824,-2,-3,-5,0
831.824,4,1,-3,1
831.825,7,3,0,0
831.825,2,0,0,2
831.826,3,1,0,5
831.827,5,1,0,4
831.827,4,0,0,5
831.828,5,0,0,5
831.828,7,5,7,8
831.829,8,9,9,7
831.829,5,6,8,5
831.83,1,3,6,3
831.831,-1,0,3,1
831.831,-2,0,3,1
831.832,-1,0,3,1
831.832,0,0,1,1
831.833,0,0,1,0
831.833,1,0,1,2
831.834,3,0,0,4
831.835,9,5,0,2
831.835,7,2,-2,2
831.836,5,0,-5,1
831.836,4,0,-2,3
831.837,6,1,0,3
831.838,7,5,2,5
831.838,10,9,5,6
831.839,10,11,8,4
831.839,6,10,8,1
831.84,2,7,6,0
831.84,0,6,6,-1
831.841,-1,5,6,0
831.841,0,4,4,-1
831.842,-1,3,2,0
831.843,-1,0,0,-1
831.843,-1,2,2,0
831.844,0,2,2,0
831.844,0,0,2,2
831.845,0,-1,0,2
831.845,1,0,1,4
831.846,2,-2,0,6
831.847,4,-2,-1,7
831.847,6,0,1,8
831.848,7,0,2,8
831.848,11,7,7,10
831.849,11,8,7,7
831.85,8,6,4,3
831.85,5,5,3,2
831.851,3,3,0,-1
831.851,0,0,-2,-4
831.852,0,1,-1,-3
831.852,-1,0,-1,-1
831.853,0,1,2,1
831.854,3,2,1,2
831.854,1,0,0,0
831.855,1,0,0,0
831.855,1,0,0,6
831.856,8,3,1,8
831.856,15,9,0,3
831.857,8,5,0,0
831.858,3,4,2,1
831.858,3,5,5,4
831.859,4,9,8,4
831.859,3,8,9,3
831.86,1,7,6,1
831.86,1,8,7,0
831.861,0,6,6,0
831.862,0,5,5,0
831.862,0,2,0,-1
831.863,1,2,0,-2
831.863,1,1,-2,-2
831.864,0,0,0,-1
831.864,-1,-2,-2,0
831.865,0,-1,0,5
831.866,8,3,0,5
831.866,7,3,1,4
831.867,6,1,1,6
831.867,6,0,0,6
831.868,6,2,2,6
831.868,8,7,7,7
831.869,6,5,5,5
831.87,4,4,4,3
831.87,3,4,4,2
831.871,0,1,1,-1
831.871,0,0,0,-1
831.872,0,1,1,0
831.872,1,3,2,0
831.873,2,6,4,0
831.874,0,2,2,0
831.874,-2,-1,-1,0
831.875,0,-1,-1,1
831.875,2,0,0,2
831.876,5,2,0,4
831.876,6,2,0,5
831.877,8,6,4,7
831.878,10,8,6,6
831.878,8,8,5,5
831.879,7,10,6,3
831.879,5,9,7,2
831.88,3,8,6,0
831.88,0,7,6,-1
831.881,0,4,2,-3
831.882,-2,2,0,-3
831.882,-3,0,0,-1
831.883,0,0,0,1
831.883,4,4,0,0
831.884,2,1,-1,0
831.885,1,-1,-2,0
831.885,1,-1,0,4
831.886,3,0,1,6
831.886,5,0,0,7
831.887,5,-1,0,7
831.887,5,-1,0,8
831.888,8,4,6,9
831.889,8,5,7,8
831.889,6,5,6,6
831.89,4,5,6,5
831.89,2,2,3,1
831.891,1,1,1,0
831.891,0,0,0,0
831.892,1,0,0,0
831.893,1,1,-1,0
831.893,3,3,0,1
831.894,4,3,0,0
831.894,2,1,-2,0
831.895,2,0,0,1
831.896,2,0,-1,2
831.896,4,1,0,4
831.897,5,0,0,4
831.897,7,4,2,6
831.898,8,7,5,6
831.898,9,8,6,6
831.899,9,12,9,4
831.899,6,9,7,2
831.9,3,9,6,-1
831.901,0,5,3,-2
831.901,-2,4,3,-2
831.902,-2,2,1,-2
831.902,-2,0,0,-1
831.903,0,1,0,0
831.904,1,2,1,1
831.904,2,1,1,2
831.905,3,1,1,2
831.905,2,0,0,2
831.906,2,-1,0,5
831.906,3,-1,0,5
831.907,3,-1,0,7
831.907,5,0,2,8
831.908,9,5,7,9
831.909,10,10,9,8
831.909,5,5,6,5
831.91,3,3,4,2
831.91,2,3,2,0
831.911,0,0,-1,-1
831.911,-1,0,-2,-2
831.912,0,0,0,0
831.913,0,0,0,0
831.913,1,1,0,2
831.914,2,1,1,2
831.914,4,1,0,3
831.915,6,2,0,4
831.916,8,3,0,4
831.916,8,4,0,4
831.917,7,3,0,3
831.917,7,4,1,4
831.918,8,8,3,3
831.918,9,10,6,2
831.919,7,12,8,2
831.92,3,8,5,0
831.92,0,7,3,-3
831.921,-2,4,2,-3
831.921,-3,0,0,-2
831.922,-2,0,0,-1
831.922,-1,0,0,1
831.923,0,0,1,3
831.924,3,3,2,4
831.924,4,4,4,3
831.925,2,0,2,3
831.925,0,-2,1,4
831.926,2,-2,1,6
831.926,1,-3,0,6
831.927,1,-4,1,7
831.928,3,-1,3,12
831.928,12,8,9,13
831.929,14,11,10,9
831.929,8,8,5,7
831.93,10,7,1,1
831.93,3,1,-3,-3
831.931,0,-2,-4,-1
831.932,5,4,-1,-2
831.932,3,3,-1,-4
831.933,0,2,0,-5
831.933,-3,0,0,-2
831.934,0,2,-1,0
831.935,4,4,0,-2
831.935,1,2,0,-1
831.936,0,1,1,2
831.936,4,3,3,4
831.937,6,5,2,4
831.937,7,7,4,5
831.938,8,9,6,5
831.939,11,13,9,5
831.939,8,12,8,1
831.94,2,7,4,-2
831.94,0,6,4,-4
831.941,-2,5,3,-2
831.941,0,6,4,-2
831.942,-2,3,3,-1
831.943,-2,0,1,-1
831.943,-2,-1,0,-1
831.944,-1,0,1,1
831.944,0,0,3,3
831.945,-1,-1,3,6
831.945,0,-2,3,7
831.946,2,-3,0,7
831.947,4,-2,1,9
831.947,7,0,2,11
831.948,10,3,4,11
831.948,11,8,8,10
831.949,9,7,6,6
831.949,5,3,3,3
831.95,4,4,2,1
831.951,2,0,0,0
831.951,1,1,-1,-1
831.952,0,0,-2,-1
831.952,0,-1,-2,-1
831.953,0,0,-1,0
831.953,3,0,0,2
831.954,4,1,0,1
831.955,4,0,-1,1
831.955,3,0,-1,3
831.956,6,2,1,5
831.956,6,3,1,6
831.957,8,3,1,6
831.957,7,5,4,6
831.958,7,6,5,5
831.959,8,11,8,5
831.959,7,10,8,3
831.96,3,5,3,0
831.96,1,5,3,0
831.961,0,6,3,-1
831.961,0,3,2,-2
831.962,0,4,2,-2
831.963,0,2,0,-2
831.963,-1,-1,-3,-1
831.964,0,0,-1,0
831.964,1,-2,-2,1
831.965,2,-1,-1,3
831.966,5,0,0,8
831.966,7,1,2,8
831.967,8,2,2,7
831.967,7,0,0,6
831.968,6,2,3,7
831.968,9,7,6,7
831.969,8,8,6,5
831.97,4,5,3,1
831.97,1,2,2,0
831.971,-2,-1,0,-1
831.971,-2,-1,0,0
831.972,-1,0,0,0
831.972,0,2,2,2
831.973,0,0,1,1
831.974,2,0,0,1
831.974,2,0,0,2
831.975,3,0,0,4
831.975,4,1,1,4
831.976,6,1,1,5
831.976,6,1,1,6
831.977,9,5,3,6
831.978,8,7,4,6
831.978,8,7,4,5
831.979,10,11,7,6
831.979,13,14,4,1
831.98,10,13,3,-3
831.98,2,9,2,-6
831.981,-2,5,0,-7
831.982,-5,0,-2,-7
831.982,-5,0,-1,-6
831.983,-4,1,0,-3
831.983,-3,0,1,-1
831.984,-1,1,2,0
831.984,-1,0,2,2
831.985,-1,-2,0,4
831.986,1,-2,1,7
831.986,4,0,2,9
831.987,6,0,3,11
831.987,8,0,3,12
831.988,10,5,5,12
831.988,14,9,7,10
831.989,13,10,7,5
831.99,6,5,3,1
831.99,1,2,1,-1
831.991,-3,-2,0,-2
831.991,-4,-4,-2,-2
831.992,-3,-2,0,0
831.992,0,0,2,2
831.993,2,2,2,4
831.994,5,3,1,2
831.994,5,2,0,2
831.995,5,1,0,2
831.995,5,1,-1,3
831.996,6,3,0,4
831.997,6,2,0,2
831.997,6,4,1,4
831.998,7,7,4,4
831.998,8,9,6,4
831.999,7,10,8,3
831.999,4,9,6,0
832,1,7,5,-1
832.001,0,4,3,-1
832.001,-1,4,3,-2
832.002,-2,1,1,-2
832.002,-2,0,0,-1
832.003,0,1,2,0
832.003,0,2,2,2
832.004,2,2,3,3
832.005,3,0,1,3
832.005,2,0,0,2
832.006,2,0,0,4
832.006,4,-1,-1,6
832.007,6,0,0,6
832.007,7,0,0,7
832.008,8,5,5,7
832.009,7,7,7,8
832.009,6,6,6,5
832.01,3,4,5,4
832.01,2,3,3,2
832.011,1,2,1,0
832.011,-1,0,0,-1
832.012,-1,0,0,0
832.013,0,0,1,0
832.013,2,2,1,1
832.014,2,1,0,2
832.014,2,0,-3,0
832.015,4,0,-1,2
832.016,5,1,0,3
832.016,6,2,1,4
832.017,7,4,3,6
832.017,9,7,4,6
832.018,10,8,5,6
832.018,9,9,6,2
832.019,5,10,6,1
832.019,2,8,6,-1
832.02,0,8,5,-1
832.021,0,5,4,-2
832.021,-2,4,3,-3
832.022,-2,2,2,-2
832.022,-2,1,0,-2
832.023,-2,0,1,0
832.023,-2,0,2,2
832.024,2,1,2,3
832.025,2,1,0,3
832.025,2,0,1,5
832.026,4,0,1,6
832.026,5,-1,0,8
832.027,9,0,0,10
832.028,14,6,0,8
832.028,14,10,4,5
832.029,8,7,5,4
832.029,4,4,2,0
832.03,1,3,3,0
832.03,0,1,0,-1
832.031,-2,0,1,-1
832.031,-3,0,1,0
832.032,0,0,0,0
832.033,2,2,0,0
832.033,0,-2,-2,0
832.034,2,-2,-3,3
832.034,5,2,0,3
832.035,7,3,1,5
832.036,9,5,0,5
832.036,10,6,1,4
832.037,8,6,2,2
832.037,5,4,2,2
832.038,2,3,3,1
832.038,0,4,6,3
832.039,2,7,9,3
832.04,2,7,8,3
832.04,3,9,10,4
832.041,3,9,8,1
832.041,0,3,2,-2
832.042,-3,1,0,-1
832.042,-1,0,0,0
832.043,0,1,0,0
832.044,1,1,0,1
832.044,0,0,0,0
832.045,0,-1,0,2
832.045,1,0,1,5
832.046,3,0,2,6
832.046,4,0,1,7
832.047,6,1,1,8
832.048,7,2,2,8
832.048,11,8,7,9
832.049,12,10,6,7
832.049,11,9,1,1
832.05,5,5,0,-2
832.051,0,1,-2,-4
832.051,-3,-1,-3,-4
832.052,-3,-1,-2,-3
832.052,-1,0,0,-1
832.053,0,2,0,0
832.053,1,4,3,1
832.054,2,3,3,3
832.055,2,2,0,1
832.055,2,2,0,3
832.056,3,-1,-2,3
832.056,4,-1,-1,5
832.057,8,3,3,8
832.057,11,8,6,9
832.058,12,10,6,6
832.059,11,11,6,3
832.059,6,9,5,1
832.06,3,8,4,0
832.06,0,6,3,-2
832.061,-1,3,2,-3
832.061,-3,2,2,-2
832.062,-2,2,2,-1
832.063,-1,1,0,-1
832.063,-2,0,0,-1
832.064,0,1,1,2
832.064,1,1,2,3
832.065,3,1,2,5
832.065,3,-1,0,5
832.066,3,-2,0,4
832.067,3,-2,0,6
832.067,6,0,3,10
832.068,10,5,6,9
832.068,9,7,7,8
832.069,8,6,6,5
832.069,4,3,3,2
832.07,2,4,3,2
832.071,1,2,2,0
832.071,0,0,-1,-1
832.072,0,-1,-2,-1
832.072,0,0,0,0
832.073,3,4,2,1
832.073,2,4,3,1
832.074,1,0,-1,0
832.075,0,-1,-1,0
832.075,1,0,0,3
832.076,5,2,2,5
832.076,5,4,3,5
832.077,6,5,5,6
832.077,6,6,5,5
832.078,7,7,5,7
832.079,11,11,7,8
832.079,18,17,5,0
832.08,9,11,1,-6
832.08,0,4,0,-7
832.081,-4,1,0,-6
832.081,-5,-1,-2,-6
832.082,-4,0,-1,-3
832.083,-1,1,2,0
832.083,1,2,3,3
832.084,3,2,2,3
832.084,3,0,0,2
832.085,1,-1,0,4
832.086,5,1,1,7
832.086,8,2,2,9
832.087,10,1,1,8
832.087,8,1,-1,5
832.088,8,4,3,6
832.088,8,7,6,5
832.089,6,8,8,4
832.09,3,4,4,0
832.09,-2,-1,0,-1
832.091,-5,-3,0,-2
832.091,-5,-3,1,0
832.092,-2,0,4,3
832.092,0,0,5,4
832.093,0,0,4,3
832.094,0,-1,2,4
832.094,1,0,1,6
832.095,6,3,2,6
832.095,9,5,2,5
832.096,10,6,1,5
832.096,8,4,0,2
832.097,9,7,0,3
832.098,10,9,2,3
832.098,10,10,3,0
832.099,8,11,4,-2
832.099,2,8,3,-4
832.1,0,5,2,-4
832.1,-2,2,0,-3
832.101,-2,3,0,-2
832.102,-1,2,1,-1
832.102,0,2,2,-1
832.103,0,3,3,0
832.103,0,2,4,2
832.104,0,1,3,4
832.104,2,0,2,4
832.105,3,0,1,6
832.106,3,0,0,6
832.106,5,0,0,7
832.107,6,-1,0,6
832.107,6,0,0,7
832.108,9,6,5,9
832.109,10,8,7,7
832.109,6,5,4,3
832.11,3,3,2,2
832.11,0,0,0,0
832.111,0,0,0,0
832.111,0,0,0,-1
832.112,0,0,0,0
832.112,0,3,2,1
832.113,2,4,3,2
832.114,3,3,1,2
832.114,3,1,0,2
832.115,5,2,-1,3
832.115,8,4,-1,1
832.116,6,3,-1,1
832.117,5,2,0,1
832.117,5,4,2,2
832.118,4,3,1,2
832.118,5,6,4,3
832.119,7,11,8,4
832.119,6,11,9,3
832.12,3,9,7,0
832.121,0,5,5,-1
832.121,-1,3,2,-2
832.122,-1,1,2,0
832.122,0,1,1,-1
832.123,-1,0,0,0
832.123,-1,0,0,2
832.124,5,2,0,4
832.125,6,2,0,1
832.125,3,0,0,3
832.126,3,0,0,3
832.126,2,-2,-1,5
832.127,2,-2,0,7
832.127,6,0,3,9
832.128,9,7,8,10
832.129,9,7,8,8
832.129,7,6,5,4
832.13,5,6,4,2
832.13,1,3,1,0
832.131,0,0,0,-2
832.131,0,1,0,-1
832.132,0,0,0,-2
832.133,0,2,1,0
832.133,2,5,2,0
832.134,0,0,-1,0
832.134,0,-6,-6,0
832.135,3,-1,-2,3
832.135,7,4,2,5
832.136,7,5,3,6
832.137,8,6,5,6
832.137,8,7,5,6
832.138,5,5,4,3
832.138,4,6,5,3
832.139,3,7,8,4
832.14,3,7,8,3
832.14,3,9,8,2
832.141,1,6,5,0
832.141,0,4,2,-2
832.142,-1,1,0,-2
832.142,0,1,-1,-1
832.143,3,3,-1,1
832.144,8,8,0,-1
832.144,5,3,-4,-4
832.145,0,0,-3,-2
832.145,0,-1,-2,2
832.146,2,-1,-1,2
832.146,3,0,0,5
832.147,4,-1,0,6
832.148,6,2,3,8
832.148,9,8,8,9
832.149,7,6,8,7
832.149,4,3,6,5
832.15,2,3,4,3
832.15,1,1,1,1
832.151,2,2,1,0
832.152,0,0,0,-1
832.152,0,1,0,0
832.153,1,1,1,0
832.153,1,1,0,1
832.154,0,-2,-1,1
832.154,2,-1,0,4
832.155,6,2,1,4
832.156,5,3,2,5
832.156,4,1,3,6
832.157,6,3,3,7
832.157,8,7,6,6
832.158,8,7,4,4
832.158,7,11,8,4
832.159,6,10,7,0
832.16,1,7,6,-1
832.16,-1,6,4,-2
832.161,-3,3,2,-2
832.161,-3,1,1,-1
832.162,-2,0,0,0
832.162,3,2,-1,1
832.163,5,5,0,0
832.164,3,3,0,0
832.164,1,0,-1,1
832.165,1,-1,-1,3
832.165,1,-2,-1,3
832.166,4,-1,0,5
832.167,4,-2,0,7
832.167,6,0,1,9
832.168,10,3,4,10
832.168,9,5,6,9
832.169,8,5,5,6
832.169,5,5,5,4
832.17,4,4,4,3
832.171,3,3,2,0
832.171,1,1,0,-1
832.172,0,0,-2,-2
832.172,0,0,-1,0
832.173,2,4,2,1
832.173,2,3,1,0
832.174,0,0,0,0
832.174,1,0,0,1
832.175,3,3,0,3
832.176,5,4,2,3
832.176,5,1,0,2
832.177,6,4,1,4
832.177,8,7,5,4
832.178,8,9,7,4
832.179,7,12,9,3
832.179,4,10,8,1
832.18,2,8,6,-1
832.18,0,5,3,-3
832.181,-3,2,1,-3
832.181,-2,0,0,-1
832.182,0,1,0,-1
832.183,0,1,0,0
832.183,1,1,1,1
832.184,0,0,1,1
832.184,1,1,2,3
832.185,1,0,2,5
832.185,3,-1,1,6
832.186,5,0,1,6
832.187,5,0,1,7
832.187,6,1,2,8
832.188,7,4,5,9
832.188,9,6,5,9
832.189,12,9,4,7
832.189,13,11,1,0
832.19,5,4,-1,-4
832.191,-2,-1,-3,-4
832.191,-4,-3,-4,-4
832.192,-3,-3,-4,-3
832.192,0,0,0,0
832.193,3,3,2,2
832.193,5,4,1,3
832.194,5,4,2,3
832.195,4,2,0,2
832.195,3,2,0,1
832.196,4,2,1,3
832.196,5,3,2,4
832.197,6,5,4,5
832.198,6,6,6,4
832.198,6,7,6,4
832.199,5,9,9,4
832.199,3,8,7,1
832.2,2,7,6,-1
832.2,-2,3,4,-2
832.201,-3,3,3,-1
832.202,-2,1,3,0
832.202,-2,0,1,0
832.203,0,1,2,0
832.203,0,1,2,2
832.204,1,1,1,3
832.204,3,0,0,6
832.205,9,4,0,6
832.206,11,3,-1,4
832.206,6,0,-2,3
832.207,4,-2,-2,3
832.207,4,0,0,5
832.208,7,4,4,7
832.208,7,6,6,6
832.209,5,3,5,5
832.21,3,4,4,4
832.21,1,1,2,1
832.211,0,0,0,0
832.211,0,0,1,1
832.212,2,1,0,2
832.212,4,3,1,1
832.213,2,1,0,0
832.214,2,1,0,0
832.214,2,0,0,1
832.215,3,2,0,2
832.215,4,3,1,1
832.216,4,3,1,2
832.216,3,3,4,3
832.217,3,3,2,5
832.218,4,2,1,4
832.218,9,8,5,6
832.219,10,12,7,3
832.219,7,10,6,1
832.22,3,8,5,0
832.22,0,7,4,-1
832.221,0,4,2,-2
832.222,-1,2,1,-4
832.222,-4,0,0,-2
832.223,-3,0,2,0
832.223,0,0,3,3
832.224,0,0,1,3
832.224,1,0,0,3
832.225,2,-1,0,5
832.226,3,-1,-1,5
832.226,5,-1,0,7
832.227,7,0,0,8
832.227,8,2,2,8
832.228,10,7,7,9
832.229,8,7,7,7
832.229,7,7,5,5
832.23,5,6,4,2
832.23,1,2,0,0
832.231,0,0,-1,-3
832.231,-1,0,-1,-1
832.232,1,1,-1,-1
832.233,1,1,0,0
832.233,2,2,1,0
832.234,1,1,0,0
832.234,2,1,0,1
832.235,4,1,-1,3
832.235,6,3,0,3
832.236,7,4,1,4
832.237,7,5,2,3
832.237,6,4,3,3
832.238,4,6,5,3
832.238,4,7,7,4
832.239,2,7,8,4
832.239,2,7,6,2
832.24,0,6,7,1
832.241,0,5,5,0
832.241,0,4,3,0
832.242,0,4,1,0
832.242,4,5,0,1
832.243,8,8,0,0
832.243,5,4,-2,-4
832.244,0,-1,-4,-3
832.245,-2,-4,-4,-1
832.245,-2,-4,-2,2
832.246,1,-2,0,5
832.246,5,0,1,7
832.247,7,1,2,9
832.247,10,4,5,9
832.248,10,8,7,8
832.249,8,8,8,6
832.249,4,4,3,3
832.25,2,3,3,2
832.25,0,1,0,0
832.251,0,0,0,0
832.251,0,1,0,0
832.252,0,0,0,0
832.253,2,2,1,2
832.253,2,2,1,1
832.254,1,0,0,0
832.254,1,1,0,1
832.255,2,1,1,3
832.256,5,3,1,5
832.256,8,3,1,4
832.257,7,5,2,4
832.257,8,6,4,3
832.258,6,7,5,4
832.258,6,9,8,4
832.259,4,8,6,1
832.26,2,8,7,0
832.26,0,6,5,-2
832.261,-1,4,3,-2
832.261,-2,2,1,0
832.262,2,4,-1,-2
832.262,2,5,0,-2
832.263,1,3,0,-2
832.264,0,1,1,0
832.264,0,0,0,1
832.265,0,-3,-1,2
832.265,0,-5,-2,5
832.266,3,-3,0,8
832.266,8,0,2,10
832.267,9,3,4,10
832.268,10,6,7,10
832.268,9,8,8,9
832.269,8,8,6,5
832.269,5,4,3,3
832.27,3,2,1,1
832.27,3,1,-2,-2
832.271,0,0,-2,-3
832.272,-1,-1,-2,-2
832.272,-1,0,0,0
832.273,0,0,1,0
832.273,0,1,2,1
832.274,2,1,0,1
832.274,2,2,1,4
832.275,4,2,0,4
832.276,6,3,1,4
832.276,6,4,2,5
832.277,7,5,2,5
832.277,7,7,3,4
832.278,7,7,4,4
832.279,6,9,6,3
832.279,4,8,6,1
832.28,2,7,6,0
832.28,2,8,5,0
832.281,0,6,4,-2
832.281,-2,2,1,-3
832.282,-2,0,0,-2
832.283,-2,0,0,0
832.283,0,1,0,0
832.284,1,2,1,2
832.284,2,0,0,2
832.285,3,0,0,4
832.285,4,1,0,5
832.286,6,1,0,6
832.286,5,0,0,5
832.287,5,0,0,6
832.288,8,3,3,8
832.288,10,7,5,6
832.289,7,5,4,4
832.289,4,3,3,2
832.29,0,0,1,1
832.291,-1,0,0,0
832.291,0,0,2,2
832.292,1,1,1,1
832.292,2,2,2,3
832.293,4,5,3,2
832.293,4,3,1,0
832.294,1,0,0,0
832.295,0,0,-1,0
832.295,2,0,0,1
832.296,3,1,1,5
832.296,6,3,2,4
832.297,5,3,1,4
832.297,7,5,3,6
832.298,10,10,6,6
832.299,13,16,9,4
832.299,11,14,7,-1
832.3,4,10,5,-4
832.3,-1,5,2,-5
832.301,-4,2,0,-5
832.302,-5,0,-2,-5
832.302,-4,0,0,-2
832.303,-1,1,0,0
832.303,0,2,2,0
832.304,0,0,1,1
832.304,0,-1,0,3
832.305,2,0,1,6
832.305,4,1,2,7
832.306,5,1,2,8
832.307,6,0,1,8
832.307,8,1,2,7
832.308,9,6,6,8
832.308,9,7,6,6
832.309,5,5,4,3
832.31,1,3,4,1
832.31,-1,-2,-1,0
832.311,-1,-2,-1,0
832.311,0,0,0,1
832.312,1,1,1,2
832.312,1,2,3,3
832.313,3,3,3,2
832.313,2,1,1,3
832.314,3,1,0,4
832.315,7,4,0,5
832.315,11,5,-1,2
832.316,8,5,-1,0
832.316,5,4,0,0
832.317,5,3,1,1
832.318,4,4,1,1
832.318,5,8,4,1
832.319,6,10,7,2
832.319,3,9,6,0
832.32,0,7,6,-2
832.32,-2,4,5,-1
832.321,-2,3,5,0
832.322,-1,3,3,0
832.322,0,2,2,1
832.323,2,2,1,0
832.323,2,1,0,0
832.324,0,-1,0,1
832.324,0,-1,0,3
832.325,2,-1,0,5
832.326,3,-1,0,7
832.326,5,-1,0,8
832.327,7,0,0,9
832.327,10,2,3,9
832.328,12,8,7,9
832.328,9,7,6,6
832.329,6,5,3,2
832.33,3,4,3,1
832.33,0,1,1,0
832.331,0,0,-1,-1
832.331,-1,0,0,0
832.332,0,0,0,1
832.332,1,2,1,0
832.333,2,3,2,1
832.334,1,1,0,1
832.334,2,0,0,2
832.335,2,0,0,3
832.335,6,2,0,4
832.336,7,4,2,4
832.336,9,7,4,5
832.337,8,7,4,3
832.338,6,7,4,2
832.338,6,9,6,1
832.339,4,8,6,0
832.339,2,7,4,-1
832.34,1,6,4,-1
832.341,0,5,3,-1
832.341,-2,1,1,-1
832.342,-2,0,1,-1
832.342,-1,0,1,0
832.343,1,2,2,2
832.343,2,2,1,1
832.344,2,1,1,3
832.345,3,0,0,2
832.345,2,0,0,3
832.346,2,-1,0,5
832.346,3,-2,0,7
832.347,7,1,2,8
832.347,8,3,5,10
832.348,10,8,8,9
832.349,7,6,6,5
832.349,3,3,4,3
832.35,1,2,2,2
832.35,0,0,0,0
832.351,-2,-2,0,0
832.351,0,-1,0,2
832.352,7,5,1,2
832.353,5,4,0,1
832.353,6,4,-2,0
832.354,3,1,-2,0
832.354,2,1,-1,0
832.355,3,1,-1,1
832.355,5,3,0,3
832.356,6,3,0,1
832.357,6,4,2,2
832.357,6,6,3,4
832.358,7,8,4,3
832.358,7,10,7,3
832.359,6,10,8,2
832.359,3,9,6,0
832.36,1,7,6,-1
832.361,-1,5,4,-3
832.361,-3,2,2,-3
832.362,-2,1,1,-2
832.362,-2,1,1,-1
832.363,-1,1,1,0
832.363,0,0,2,1
832.364,1,0,1,3
832.365,2,0,0,3
832.365,2,-1,0,5
832.366,4,-2,0,8
832.366,5,0,1,9
832.367,8,0,2,9
832.367,10,5,6,10
832.368,10,8,8,10
832.369,8,7,5,5
832.369,5,5,4,3
832.37,2,2,1,0
832.37,0,0,-1,-2
832.371,0,0,-1,-1
832.371,0,0,-1,-1
832.372,0,0,0,0
832.373,0,0,0,0
832.373,0,0,0,1
832.374,3,1,1,2
832.374,3,2,1,3
832.375,4,1,0,2
832.375,6,3,1,4
832.376,7,5,2,5
832.377,9,8,4,5
832.377,9,10,6,4
832.378,7,9,5,1
832.378,4,7,4,0
832.379,1,4,3,0
832.38,1,6,4,0
832.38,0,6,4,-1
832.381,0,4,3,-1
832.381,0,3,2,-1
832.382,-1,1,1,0
832.382,-1,1,1,-1
832.383,-1,0,1,1
832.384,0,0,1,2
832.384,2,0,1,5
832.385,4,0,1,5
832.385,4,0,0,7
832.386,5,0,0,6
832.386,7,0,0,7
832.387,8,2,1,8
832.388,9,5,5,9
832.388,12,9,5,6
832.389,10,7,2,0
832.389,2,3,2,0
832.39,-2,0,1,0
832.39,-3,-3,0,-1
832.391,-2,0,0,0
832.392,0,0,0,1
832.392,2,3,2,3
832.393,5,5,2,3
832.393,4,2,1,1
832.394,2,0,-1,0
832.394,1,0,-1,1
832.395,4,1,0,4
832.396,6,4,2,4
832.396,6,4,1,4
832.397,6,4,3,4
832.397,5,6,4,4
832.398,7,9,7,5
832.398,8,12,8,2
832.399,4,9,5,0
832.4,1,6,3,-2
832.4,0,4,2,-2
832.401,-1,4,2,-2
832.401,-1,2,1,-1
832.402,-1,0,0,-1
832.403,0,0,0,0
832.403,0,0,0,0
832.404,1,1,1,1
832.404,1,0,1,3
832.405,2,1,2,5
832.405,4,2,2,5
832.406,6,2,1,6
832.407,6,0,1,6
832.407,4,0,0,6
832.408,6,2,3,8
832.408,8,5,5,7
832.409,6,3,3,4
832.409,6,5,4,3
832.41,3,2,2,1
832.411,1,1,0,0
832.411,0,0,0,0
832.412,0,0,0,0
832.412,0,2,1,0
832.413,1,1,1,0
832.413,1,0,0,1
832.414,2,0,0,1
832.415,2,0,0,3
832.415,4,1,1,4
832.416,6,3,2,6
832.416,11,7,4,6
832.417,10,8,4,4
832.417,7,4,0,2
832.418,6,7,4,3
832.419,7,11,7,2
832.419,5,11,7,0
832.42,1,8,6,-2
832.42,0,5,3,-2
832.421,-2,3,1,-5
832.422,-5,0,0,-3
832.422,-5,-3,-1,-2
832.423,-2,-2,0,1
832.423,1,1,2,5
832.424,3,1,3,4
832.424,2,0,2,5
832.425,3,0,1,7
832.425,7,2,2,10
832.426,12,4,1,7
832.427,10,3,0,4
832.427,5,0,0,4
832.428,4,4,4,6
832.428,5,5,5,5
832.429,4,4,3,5
832.43,8,8,3,2
832.43,6,5,0,-3
832.431,0,0,-2,-4
832.431,-1,-1,-3,-4
832.432,-3,-1,-1,-2
832.432,-1,0,0,0
832.433,0,1,2,1
832.434,2,0,0,3
832.434,4,3,2,4
832.435,5,3,0,3
832.435,5,2,1,2
832.436,3,2,1,4
832.436,5,4,4,8
832.437,10,8,6,7
832.438,11,10,6,4
832.438,7,10,6,2
832.439,4,8,5,0
832.439,0,6,5,0
832.44,0,4,3,-1
832.44,0,5,4,-1
832.441,0,4,3,-1
832.442,0,4,2,-1
832.442,-1,2,0,-1
832.443,-2,0,0,-2
832.443,-1,0,0,0
832.444,1,0,1,2
832.445,1,0,2,4
832.445,3,0,1,5
832.446,4,0,0,4
832.446,4,-2,0,6
832.447,5,0,1,8
832.447,9,4,5,10
832.448,10,6,6,8
832.448,8,6,5,5
832.449,5,4,4,4
832.45,4,4,2,1
832.45,1,0,0,0
832.451,0,1,0,0
832.451,0,0,-1,0
832.452,0,0,0,0
832.452,0,0,0,0
832.453,1,2,1,2
832.454,2,1,0,1
832.454,3,1,0,2
832.455,3,0,-1,2
832.455,5,2,1,4
832.456,6,3,1,4
832.456,7,5,2,4
832.457,8,8,6,6
832.458,7,8,6,4
832.458,8,10,7,3
832.459,4,7,5,1
832.459,3,8,5,0
832.46,1,6,4,-1
832.461,0,4,2,-3
832.461,-2,2,0,-2
832.462,-3,0,0,-2
832.462,0,1,1,0
832.463,0,1,0,0
832.463,0,1,0,1
832.464,1,0,1,3
832.465,2,0,1,5
832.465,4,0,0,5
832.466,5,0,0,7
832.466,5,0,0,7
832.467,7,0,0,7
832.467,9,6,5,8
832.468,10,8,5,5
832.469,6,6,4,3
832.469,4,4,3,2
832.47,1,2,2,0
832.47,0,0,0,-1
832.471,-2,-1,0,0
832.471,-1,0,0,0
832.472,1,0,1,2
832.473,3,2,2,4
832.473,4,2,2,3
832.474,3,1,0,2
832.474,3,2,0,2
832.475,5,3,1,2
832.475,5,3,2,3
832.476,5,2,1,4
832.477,7,5,2,3
832.477,7,6,3,4
832.478,8,9,5,4
832.478,7,9,5,1
832.479,5,8,4,0
832.479,2,7,4,0
832.48,1,6,3,-1
832.481,0,4,2,-2
832.481,-1,2,2,-2
832.482,-1,2,1,-2
832.482,-1,1,0,0
832.483,0,2,1,0
832.484,0,0,2,2
832.484,1,0,1,3
832.485,2,0,1,4
832.485,2,-1,0,6
832.486,5,0,0,5
832.486,4,0,1,7
832.487,4,0,2,8
832.487,8,5,7,10
832.488,10,8,7,8
832.489,9,6,4,3
832.489,4,4,4,2
832.49,0,0,0,0
832.49,-1,-1,0,-1
832.491,-1,-1,0,0
832.492,0,0,0,1
832.492,2,3,3,3
832.493,4,5,4,3
832.493,4,2,0,3
832.494,7,2,-1,2
832.494,9,5,-2,0
832.495,6,3,-2,0
832.496,3,1,-3,0
832.496,3,0,-2,0
832.497,3,3,1,2
832.497,4,5,4,4
832.498,8,10,8,5
832.498,8,13,10,4
832.499,5,9,6,0
832.5,0,7,5,-1
832.5,0,5,3,0
832.501,3,7,3,0
832.501,2,6,2,-3
832.502,-2,1,0,-4
832.502,-5,-1,0,-1
832.503,-3,-1,1,1
832.504,-1,-1,0,2
832.504,0,0,2,5
832.505,3,0,2,7
832.505,6,0,1,7
832.506,6,0,1,8
832.506,7,0,0,7
832.507,7,2,2,8
832.508,9,6,6,8
832.508,9,7,5,6
832.509,6,4,3,2
832.509,3,3,1,0
832.51,0,1,1,0
832.51,0,0,-1,0
832.511,-1,-1,-1,0
832.512,0,0,0,0
832.512,1,1,0,1
832.513,1,2,2,2
832.513,1,1,2,2
832.514,3,1,1,3
832.515,4,0,0,3
832.515,4,2,0,4
832.516,6,3,1,5
832.516,8,5,3,6
832.517,8,7,4,5
832.517,8,8,4,3
832.518,7,9,6,2
832.518,5,9,6,1
832.519,3,8,5,0
832.52,3,9,5,-2
832.52,0,4,2,-3
832.521,-2,2,0,-5
832.521,-4,1,1,-3
832.522,-1,2,1,0
832.523,-1,1,1,0
832.523,0,2,2,1
832.524,1,0,0,2
832.524,0,-3,-1,3
832.525,2,-2,0,5
832.525,4,-1,0,8
832.526,7,0,0,7
832.527,8,2,2,9
832.527,9,4,4,8
832.528,9,7,6,8
832.528,8,7,6,6
832.529,4,4,4,2
832.529,2,2,2,0
832.53,0,0,0,0
832.531,0,1,0,0
832.531,0,1,0,-1
832.532,0,1,0,0
832.532,0,2,0,0
832.533,2,3,2,1
832.533,2,2,0,0
832.534,3,1,0,1
832.535,2,1,-1,0
832.535,3,0,0,2
832.536,4,1,0,5
832.536,6,3,2,6
832.537,8,5,3,7
832.537,9,8,6,6
832.538,10,12,9,5
832.539,6,10,8,2
832.54,3,7,4,0
832.54,0,5,3,-1
832.54,0,4,2,-1
832.541,0,2,0,-2
832.542,-1,0,0,-2
832.542,-1,1,0,0
832.543,0,1,1,1
832.543,1,1,1,1
832.544,1,1,0,3
832.544,3,0,1,2
832.545,2,-2,-1,3
832.546,3,-1,0,5
832.546,4,0,0,6
832.547,6,0,0,8
832.547,8,5,5,7
832.548,8,7,8,8
832.548,6,6,7,6
832.549,5,6,7,4
832.55,1,3,4,1
832.55,-1,0,0,0
832.551,-1,-1,0,-1
832.551,-1,-2,-1,0
832.552,0,-1,0,3
832.552,5,3,1,4
832.553,9,5,0,4
832.554,11,7,-1,0
832.554,6,3,-2,-1
832.555,3,0,-2,-1
832.555,2,1,0,1
832.556,3,1,0,2
832.556,6,4,2,3
832.557,6,6,4,5
832.558,7,9,6,5
832.558,8,12,8,3
832.559,4,8,5,0
832.559,1,6,4,0
832.56,1,7,5,-1
832.56,-1,5,4,0
832.561,-1,3,1,-1
832.562,-1,1,0,-1
832.562,0,1,0,0
832.563,2,3,2,0
832.563,0,1,1,2
832.564,0,0,0,2
832.564,-1,-3,0,5
832.565,1,-5,-2,5
832.566,4,0,1,7
832.566,6,1,3,8
832.567,7,2,3,7
832.567,8,6,8,9
832.568,8,8,10,8
832.568,7,7,7,5
832.569,4,5,5,3
832.57,1,1,0,0
832.57,0,0,0,-2
832.571,-1,-1,0,-2
832.571,-2,-1,0,-1
832.572,-1,0,0,0
832.573,1,1,2,2
832.573,2,2,1,1
832.574,3,2,1,3
832.574,4,2,1,3
832.575,5,2,0,4
832.575,10,5,0,6
832.576,13,8,0,3
832.577,11,7,0,1
832.577,8,7,0,2
832.578,9,9,1,0
832.578,6,9,2,0
832.579,3,7,2,-3
832.579,0,5,3,-2
832.58,0,3,3,-1
832.581,-2,4,3,-2
832.581,-3,1,2,-1
832.582,-3,0,2,0
832.582,0,2,4,2
832.583,0,3,5,3
832.583,0,1,3,3
832.584,2,0,3,5
832.585,3,0,3,6
832.585,5,0,2,6
832.586,4,0,0,5
832.586,4,-1,0,5
832.587,5,0,0,6
832.587,7,4,5,7
832.588,7,6,7,7
832.589,6,4,4,3
832.589,4,5,4,2
832.59,2,2,0,0
832.59,0,1,0,0
832.591,0,0,0,0
832.591,0,0,-2,0
832.592,0,0,0,0
832.593,3,2,1,3
832.593,3,0,-1,1
832.594,3,1,0,2
832.594,4,1,0,3
832.595,6,3,0,4
832.596,7,4,0,4
832.596,8,5,2,4
832.597,7,5,2,4
832.597,8,7,4,5
832.598,8,9,5,3
832.598,6,9,5,0
832.599,4,7,4,0
832.6,1,6,4,-1
832.6,0,4,2,-1
832.601,-2,2,2,-1
832.601,-2,0,1,0
832.602,-1,0,2,1
832.602,0,2,2,2
832.603,1,2,3,2
832.604,1,0,1,2
832.604,0,0,1,3
832.605,2,0,0,5
832.605,4,0,0,4
832.606,4,0,0,6
832.606,7,1,0,7
832.607,8,3,2,7
832.608,8,6,5,8
832.608,8,6,6,5
832.609,5,4,3,3
832.609,2,4,2,1
832.61,2,1,1,0
