Program Time [s],data 0,data 1,data 2,data 3
191.903,3,11,9,0
191.903,0,5,5,-2
191.904,-3,4,4,-3
191.904,-4,1,1,-3
191.905,-4,0,1,-1
191.905,-1,0,0,0
191.906,0,0,-1,1
191.906,2,1,0,2
191.907,4,2,1,4
191.908,4,0,0,4
191.908,3,-2,-1,7
191.909,7,-2,-3,7
191.909,10,0,-2,8
191.91,10,-1,-2,9
191.91,10,0,0,10
191.911,11,1,1,10
191.912,10,2,1,9
191.912,10,5,5,10
191.913,11,9,7,9
191.913,9,7,5,5
191.914,5,4,3,3
191.914,2,2,2,1
191.915,1,2,1,0
191.916,0,1,0,0
191.916,1,2,2,1
191.917,3,3,1,0
191.917,3,4,1,0
191.918,2,4,2,0
191.919,2,6,2,0
191.919,2,5,2,-1
191.92,0,3,1,-1
191.92,0,2,1,-1
191.921,0,4,3,0
191.921,1,8,6,0
191.922,2,11,9,0
191.923,0,9,7,0
191.923,-1,6,5,-2
191.924,-2,5,4,-3
191.924,-3,1,0,-5
191.925,-4,0,0,-3
191.925,-3,0,0,-2
191.926,0,0,0,0
191.927,1,0,0,3
191.927,3,0,0,4
191.928,2,-3,-1,5
191.928,4,-3,-1,7
191.929,6,-4,-1,10
191.929,11,0,1,11
191.93,13,1,0,12
191.931,13,3,1,11
191.931,14,5,3,10
191.932,12,5,4,9
191.932,12,8,7,8
191.933,8,5,4,5
191.933,4,1,0,2
191.934,2,0,0,1
191.935,0,0,1,1
191.935,1,3,2,2
191.936,2,4,4,2
191.936,2,5,4,1
191.937,3,6,4,0
191.937,2,4,2,-1
191.938,0,3,2,0
191.939,1,4,1,-2
191.939,-1,2,2,-1
191.94,-1,2,2,-1
191.94,0,2,2,0
191.941,1,4,3,0
191.941,2,7,7,0
191.942,2,10,8,1
191.943,2,9,7,1
191.943,6,11,5,-1
191.944,4,9,1,-7
191.944,-2,2,-3,-8
191.945,-6,-1,-3,-7
191.946,-6,-4,-3,-4
191.946,-4,-3,-1,0
191.947,0,-1,0,2
191.947,1,-2,0,4
191.948,1,-4,0,9
191.948,5,-3,1,12
191.949,9,0,3,13
191.949,11,2,3,12
191.95,10,0,2,13
191.951,13,3,3,13
191.951,13,5,4,13
191.952,16,7,2,10
191.952,16,9,1,4
191.953,8,5,0,1
191.953,3,2,0,0
191.954,1,1,0,0
191.955,0,0,0,-1
191.955,-1,0,1,0
191.956,-1,1,3,1
191.956,1,4,5,2
191.957,2,5,4,2
191.958,1,4,3,1
191.958,1,5,3,0
191.959,1,4,4,1
191.959,2,6,4,0
191.96,1,5,3,1
191.96,2,4,2,0
191.961,2,6,3,0
191.962,4,12,8,0
191.962,2,11,7,-2
191.963,0,5,1,-6
191.963,-3,2,1,-5
191.964,-4,2,1,-4
191.964,-4,0,0,-2
191.965,-3,0,0,-1
191.966,-2,-1,-1,0
191.966,0,0,0,2
191.967,1,0,0,4
191.967,4,0,1,8
191.968,9,0,0,8
191.968,9,0,-1,7
191.969,7,-3,-3,7
191.97,7,-2,-1,9
191.97,10,0,1,11
191.971,11,3,3,12
191.971,13,4,3,11
191.972,13,5,4,10
191.972,11,6,4,6
191.973,7,4,2,4
191.974,5,4,1,3
191.974,5,5,3,1
191.975,3,5,2,0
191.975,2,4,2,-2
191.976,-1,1,1,-1
191.976,-2,0,0,0
191.977,-1,-1,0,0
191.978,0,4,4,2
191.978,4,11,9,2
191.979,3,9,6,0
191.979,0,2,3,0
191.98,0,0,0,-1
191.98,0,0,0,-1
191.981,1,3,2,0
191.982,3,11,8,2
191.982,3,11,10,2
191.983,1,9,7,-1
191.983,0,5,4,-3
191.984,-3,0,0,-5
191.985,-5,-1,0,-3
191.985,-3,0,0,-1
191.986,0,0,0,1
191.986,3,2,0,2
191.987,3,3,1,2
191.988,2,0,-2,2
191.988,2,-4,-3,4
191.989,4,-4,-3,7
191.989,7,-4,-2,10
191.99,11,0,0,10
191.99,12,3,3,12
191.991,12,3,5,12
191.991,12,5,5,11
191.992,11,7,6,9
191.993,8,6,5,6
191.993,6,4,3,3
191.994,4,4,3,4
191.994,5,5,3,4
191.995,7,7,1,0
191.995,3,4,0,-4
191.996,-4,-1,-1,-2
191.997,-4,0,1,0
191.997,-2,0,2,0
191.998,0,2,2,3
191.998,5,7,4,3
191.999,10,12,5,2
191.999,8,10,3,0
192,7,9,2,-3
192.001,1,6,1,-4
192.001,0,6,0,-6
192.002,-1,6,2,-5
192.002,-2,5,3,-4
192.003,-2,4,3,-4
192.004,-3,3,3,-3
192.004,-6,0,1,-3
192.005,-3,0,0,0
192.005,-1,0,1,1
192.006,1,0,2,4
192.006,3,1,2,4
192.007,3,1,2,5
192.008,4,-1,0,6
192.008,6,0,0,8
192.009,7,-2,-1,8
192.009,8,-2,0,9
192.01,8,-2,-1,10
192.01,10,0,2,12
192.011,12,3,4,11
192.012,10,1,3,9
192.012,10,5,5,9
192.013,8,5,5,8
192.013,6,3,3,6
192.014,8,6,3,4
192.014,6,6,3,1
192.015,1,1,1,-1
192.016,-1,0,1,-1
192.016,-1,1,2,0
192.017,0,2,2,0
192.017,0,1,2,0
192.018,0,3,4,1
192.018,0,4,5,2
192.019,2,4,5,1
192.02,3,5,4,3
192.02,7,8,2,0
192.021,4,8,2,-2
192.021,3,10,5,-1
192.022,2,9,6,-3
192.022,-1,7,4,-4
192.023,-3,4,2,-5
192.024,-3,4,2,-5
192.024,-3,2,0,-4
192.025,-4,0,-1,-4
192.025,-4,-3,-3,-2
192.026,-2,-2,-1,1
192.027,1,0,1,5
192.027,5,1,2,8
192.028,6,0,0,7
192.028,6,-3,-2,7
192.029,7,-4,-3,8
192.029,8,-1,0,11
192.03,12,1,2,13
192.03,14,4,4,13
192.031,13,4,3,11
192.032,12,4,2,8
192.032,11,6,4,8
192.033,10,7,4,5
192.033,5,4,2,2
192.034,4,4,2,1
192.034,1,2,1,0
192.035,0,1,1,0
192.036,0,2,2,-1
192.036,0,3,2,0
192.037,1,4,3,0
192.037,1,4,2,0
192.038,1,4,2,0
192.038,0,4,2,0
192.039,0,4,2,0
192.04,1,3,1,0
192.04,1,3,1,0
192.041,2,5,3,0
192.041,4,10,8,1
192.042,3,10,7,0
192.043,0,7,6,-1
192.043,-1,6,5,-2
192.044,-3,4,3,-3
192.044,-4,0,0,-4
192.045,-4,-1,-1,-2
192.045,-3,-2,-1,0
192.046,0,0,1,2
192.047,1,0,0,4
192.047,1,-1,0,5
192.048,3,-3,-1,7
192.048,6,-1,-1,9
192.049,9,-1,-1,10
192.049,12,1,0,12
192.05,13,1,0,9
192.051,11,2,1,10
192.051,11,2,3,9
192.052,8,2,3,8
192.052,6,3,5,7
192.053,3,2,5,6
192.053,2,1,5,5
192.054,2,3,5,6
192.055,5,5,6,5
192.055,6,6,3,5
192.056,11,10,1,3
192.056,15,13,0,-3
192.057,6,7,-2,-7
192.058,-2,0,-4,-9
192.058,-7,-2,-4,-7
192.059,-7,-2,-1,-3
192.059,-3,0,2,0
192.06,1,4,4,2
192.06,4,6,5,5
192.061,8,10,5,3
192.061,11,16,8,0
192.062,3,12,7,-2
192.063,0,6,4,-4
192.063,-2,6,4,-4
192.064,-3,1,0,-6
192.064,-6,-2,-3,-6
192.065,-6,-2,-2,-3
192.066,-3,-1,0,0
192.066,0,0,1,3
192.067,1,0,2,5
192.067,2,-2,1,5
192.068,2,-2,1,7
192.068,5,0,4,11
192.069,7,0,4,12
192.07,8,0,2,11
192.07,7,-4,0,11
192.071,10,-1,1,14
192.071,16,5,2,13
192.072,19,10,4,10
192.072,13,7,3,5
192.073,8,5,2,3
192.074,5,3,1,1
192.074,3,3,1,0
192.075,1,4,2,0
192.075,1,4,2,-1
192.076,0,3,2,-2
192.076,-1,2,2,-1
192.077,-1,0,1,0
192.078,0,1,0,0
192.078,2,3,2,0
192.079,2,5,3,1
192.079,2,4,2,0
192.08,2,2,1,0
192.08,1,4,3,0
192.081,1,6,5,1
192.082,4,12,11,2
192.082,2,11,9,0
192.083,0,7,4,-3
192.083,-1,5,3,-4
192.084,-3,3,1,-5
192.085,-4,2,0,-4
192.085,-3,0,0,-3
192.086,-3,-3,-4,-2
192.086,-3,-7,-6,0
192.087,3,-1,-1,4
192.087,6,2,1,6
192.088,6,0,1,8
192.089,8,0,0,9
192.089,9,0,0,10
192.09,8,-2,-1,10
192.09,10,-1,-1,10
192.091,12,1,1,11
192.091,12,3,4,12
192.092,11,6,6,10
192.093,9,5,5,8
192.093,7,4,4,5
192.094,5,4,4,4
192.094,4,3,3,2
192.095,2,3,2,1
192.095,2,3,1,1
192.096,5,5,2,0
192.096,5,8,1,-1
192.097,2,6,1,-4
192.098,-2,2,0,-5
192.098,-4,1,0,-3
192.099,-2,0,0,-1
192.099,0,3,1,0
192.1,3,6,3,0
192.101,1,4,2,0
192.101,3,6,5,0
192.102,3,8,5,0
192.102,0,7,6,0
192.103,0,6,6,0
192.103,0,6,6,-1
192.104,-2,1,1,-4
192.105,-5,-1,0,-2
192.105,-5,-4,-2,0
192.106,-2,-2,0,3
192.106,3,0,0,7
192.107,10,4,1,7
192.107,11,4,-1,4
192.108,7,0,-2,3
192.109,4,-2,-3,5
192.109,6,0,0,7
192.11,8,0,0,7
192.11,7,0,0,8
192.111,9,2,2,10
192.111,11,4,3,9
192.112,11,6,6,9
192.113,10,9,6,7
192.113,8,6,3,4
192.114,6,4,1,2
192.114,4,4,1,0
192.115,3,3,1,0
192.115,1,3,0,-1
192.116,0,2,0,-1
192.117,0,2,1,0
192.117,0,3,2,0
192.118,0,3,4,1
192.118,0,4,4,0
192.119,0,3,4,0
192.12,0,2,4,2
192.12,2,5,4,1
192.121,1,4,4,0
192.121,1,6,7,1
192.122,1,9,10,2
192.122,1,10,9,1
192.123,0,6,4,-1
192.123,3,8,2,-3
192.124,0,5,0,-6
192.125,-4,0,-3,-8
192.125,-7,-4,-4,-4
192.126,-5,-4,-3,-1
192.126,-1,-1,0,2
192.127,2,0,1,5
192.128,4,0,0,8
192.128,7,-2,0,10
192.129,10,-1,-1,11
192.129,16,4,0,11
192.13,17,6,0,7
192.13,11,3,1,8
192.131,9,3,2,8
192.132,8,2,1,6
192.132,7,2,1,6
192.133,5,1,2,5
192.133,6,3,3,5
192.134,6,4,4,5
192.134,5,3,2,2
192.135,1,0,0,0
192.136,2,2,2,1
192.136,3,5,5,2
192.137,4,5,4,1
192.137,3,6,4,0
192.138,2,4,1,-1
192.139,0,3,1,-1
192.139,1,5,2,0
192.14,3,5,2,0
192.14,2,4,1,-1
192.141,1,4,1,-3
192.141,0,8,6,-1
192.142,0,9,7,-2
192.142,-2,6,6,-2
192.143,-3,3,5,-2
192.144,-4,1,2,-3
192.144,-5,0,1,-1
192.145,-2,0,2,1
192.145,0,2,3,3
192.146,2,2,3,4
192.146,5,3,1,3
192.147,5,2,0,3
192.148,3,-2,-3,2
192.148,2,-5,-6,4
192.149,5,-5,-4,6
192.149,7,-2,-1,9
192.15,9,-1,0,11
192.15,12,3,3,14
192.151,15,6,5,13
192.152,14,7,5,10
192.152,12,7,4,7
192.153,9,6,5,4
192.153,5,4,3,2
192.154,2,3,3,1
192.154,1,4,3,0
192.155,-1,1,2,0
192.156,-2,0,2,0
192.156,0,1,2,1
192.157,1,3,3,3
192.157,6,9,4,2
192.158,5,8,2,0
192.159,1,4,0,-2
192.159,0,2,0,-3
192.16,-1,1,0,-1
192.16,0,2,1,-1
192.161,0,4,2,0
192.161,4,11,9,1
192.162,4,12,9,0
192.163,0,7,5,-2
192.163,-1,7,5,-2
192.164,-2,4,1,-4
192.164,-3,0,0,-4
192.165,-3,-1,-2,-3
192.165,-3,-2,-1,0
192.166,0,-1,0,1
192.167,2,0,1,4
192.167,4,0,1,7
192.168,7,0,0,7
192.168,7,0,-1,7
192.169,6,-3,-3,7
192.169,8,-2,0,10
192.17,9,0,0,10
192.171,12,2,3,11
192.171,11,3,3,11
192.172,10,5,5,10
192.172,10,6,6,9
192.173,8,5,4,6
192.173,5,3,2,3
192.174,3,2,2,2
192.175,3,2,1,1
192.175,4,6,3,1
192.176,2,4,2,0
192.176,0,2,0,-1
192.177,0,1,0,-1
192.177,0,1,0,0
192.178,1,3,1,0
192.179,2,4,4,0
192.179,1,4,3,0
192.18,1,5,3,0
192.18,1,4,3,0
192.181,1,7,5,0
192.182,2,9,9,0
192.182,0,7,7,0
192.183,0,6,5,-2
192.183,0,7,5,-2
192.184,-1,4,1,-4
192.184,-3,1,0,-5
192.185,-4,-3,-2,-3
192.186,-2,-2,-3,-1
192.186,0,-1,0,2
192.187,2,0,1,5
192.187,5,0,0,6
192.188,5,-1,0,7
192.188,7,-1,0,8
192.189,8,-1,0,9
192.19,8,0,1,11
192.19,9,0,2,11
192.191,10,4,6,11
192.191,8,1,4,10
192.192,8,3,4,9
192.192,9,5,5,9
192.193,10,6,5,7
192.194,9,7,3,4
192.194,7,5,1,1
192.195,5,3,-2,0
192.195,4,3,-3,-2
192.196,4,6,-1,-3
192.196,4,6,0,-2
192.197,2,3,-1,-4
192.198,-1,-1,-3,-3
192.198,-1,0,-1,-1
192.199,2,6,3,0
192.199,2,8,7,0
192.2,2,8,7,2
192.201,1,6,6,0
192.201,0,6,6,0
192.202,0,8,8,-1
192.202,-1,7,7,-1
192.203,-2,6,6,0
192.203,-1,6,5,-1
192.204,0,3,1,-4
192.204,-3,0,-1,-4
192.205,-2,-1,-2,-2
192.206,-1,0,-1,0
192.206,1,0,0,2
192.207,1,0,0,3
192.207,1,-4,-1,4
192.208,1,-5,-1,8
192.209,8,-1,0,12
192.209,15,4,1,10
192.21,11,1,0,8
192.21,8,0,0,9
192.211,9,1,2,12
192.211,11,3,4,12
192.212,14,8,7,11
192.213,12,8,7,9
192.213,9,5,2,4
192.214,4,4,2,0
192.214,1,1,1,0
192.215,1,2,1,0
192.215,0,2,0,-1
192.216,-1,1,2,0
192.217,0,2,2,0
192.217,-1,2,3,0
192.218,0,4,4,0
192.218,0,5,4,1
192.219,1,5,5,0
192.219,1,3,3,0
192.22,1,3,2,0
192.221,2,4,1,0
192.221,4,9,6,1
192.222,5,11,8,0
192.222,3,10,5,-3
192.223,-1,5,3,-5
192.223,-4,3,2,-5
192.224,-6,0,1,-4
192.225,-6,-1,0,-1
192.225,-3,-1,0,0
192.226,0,0,0,3
192.226,5,2,0,6
192.227,11,6,0,4
192.227,9,2,-4,1
192.228,4,-3,-5,2
192.229,2,-6,-5,4
192.229,4,-5,-2,8
192.23,7,-1,0,11
192.23,12,3,4,13
192.231,13,5,5,14
192.232,14,7,6,11
192.232,10,6,6,8
192.233,7,4,4,5
192.233,5,4,4,6
192.234,8,6,3,3
192.234,7,4,0,0
192.235,3,3,0,-1
192.236,0,1,0,-2
192.236,0,3,1,-1
192.237,1,3,3,0
192.237,1,5,2,0
192.238,0,2,1,-2
192.238,-1,2,2,0
192.239,0,2,2,0
192.24,1,4,4,1
192.24,3,5,5,1
192.241,2,6,4,1
192.241,5,11,7,0
192.242,2,10,8,0
192.242,0,6,4,-2
192.243,0,7,4,-3
192.243,-2,2,0,-5
192.244,-5,0,0,-4
192.245,-4,0,0,-3
192.245,-3,-2,-1,-1
192.246,-2,-2,0,0
192.246,-2,-3,2,3
192.247,-2,-5,2,6
192.248,0,-4,2,10
192.248,5,-3,2,13
192.249,10,0,3,14
192.249,13,2,3,15
192.25,15,2,0,15
192.25,20,7,1,13
192.251,21,9,0,9
192.252,18,9,0,3
192.252,10,6,0,1
192.253,4,3,-1,-1
192.253,1,0,-1,-1
192.254,1,1,0,-2
192.254,-1,0,0,0
192.255,0,1,2,0
192.256,-1,0,3,1
192.256,-1,2,5,1
192.257,0,1,4,2
192.257,0,3,6,5
192.258,3,5,6,5
192.258,5,8,7,5
192.259,8,9,6,2
192.26,5,7,3,-1
192.26,0,3,1,-3
192.261,-2,2,2,-2
192.261,1,9,7,0
192.262,1,10,6,-1
192.263,-1,5,2,-4
192.263,0,5,3,-1
192.264,4,8,1,-4
192.264,0,3,-3,-8
192.265,-5,-2,-5,-6
192.265,-4,-3,-4,-2
192.266,0,-1,-2,0
192.267,1,0,1,4
192.267,3,-1,0,5
192.268,4,-2,-1,7
192.268,5,-2,0,9
192.269,7,0,1,11
192.269,10,0,3,12
192.27,10,0,2,12
192.271,11,3,4,13
192.271,11,3,3,11
192.272,11,4,4,9
192.272,9,5,4,7
192.273,7,4,4,5
192.273,4,2,3,3
192.274,3,2,3,2
192.275,1,2,2,1
192.275,0,1,2,1
192.276,0,2,1,0
192.276,1,3,2,1
192.277,1,3,3,1
192.277,3,6,4,1
192.278,5,6,3,2
192.279,9,10,1,1
192.279,10,10,0,-5
192.28,0,3,-1,-7
192.28,-3,0,0,-6
192.281,-4,2,1,-4
192.281,-1,6,6,-1
192.282,0,9,9,0
192.283,0,8,7,0
192.283,0,8,7,-1
192.284,-2,3,4,-4
192.284,-5,-1,0,-4
192.285,-7,-3,0,-1
192.285,-1,0,1,2
192.286,2,2,3,4
192.287,4,2,2,5
192.287,2,-2,-1,5
192.288,3,-5,-3,6
192.288,6,-7,-5,9
192.289,9,-3,-3,11
192.289,12,0,0,12
192.29,14,3,3,13
192.291,14,5,4,12
192.291,14,5,4,11
192.292,12,7,5,8
192.292,9,7,4,5
192.293,6,3,1,3
192.293,4,3,1,2
192.294,4,3,0,0
192.295,0,1,0,-2
192.295,0,1,1,-1
192.296,0,2,2,0
192.296,1,4,3,0
192.297,2,4,4,0
192.298,2,4,3,0
192.298,0,3,1,0
192.299,0,3,2,0
192.299,1,3,2,0
192.3,1,4,3,0
192.3,2,6,4,0
192.301,3,8,6,0
192.302,2,10,8,0
192.302,1,10,8,-2
192.303,-2,6,5,-3
192.303,-4,5,4,-4
192.304,-6,0,1,-4
192.304,-6,0,0,-3
192.305,-5,-4,-1,-1
192.306,0,-2,0,3
192.306,4,3,2,5
192.307,7,4,2,6
192.307,6,-1,-2,8
192.308,12,1,-3,7
192.308,11,0,-3,5
192.309,7,-3,-4,5
192.31,5,-6,-5,7
192.31,7,-2,-1,10
192.311,11,2,4,13
192.311,12,6,6,12
192.312,13,7,7,10
192.312,9,7,6,7
192.313,7,5,3,4
192.314,5,4,2,3
192.314,4,4,2,1
192.315,3,4,2,0
192.315,1,3,1,0
192.316,1,3,1,0
192.316,0,1,0,-1
192.317,0,4,1,-1
192.318,0,4,2,0
192.318,1,5,4,0
192.319,1,4,3,0
192.319,1,4,2,-1
192.32,0,4,2,0
192.32,2,6,2,-2
192.321,2,10,8,0
192.322,2,11,8,-1
192.322,-2,6,5,-4
192.323,-6,0,0,-5
192.323,-4,1,3,-1
192.324,-1,3,2,0
192.324,0,2,2,0
192.325,-1,0,0,0
192.326,0,-1,0,2
192.326,3,1,0,4
192.327,4,0,0,4
192.327,4,-2,-1,5
192.328,4,-3,-1,8
192.329,7,-3,-3,10
192.329,15,2,-1,10
192.33,15,3,-1,9
192.33,13,3,0,9
192.331,9,2,1,9
192.331,9,2,1,7
192.332,7,3,3,6
192.333,6,4,4,6
192.333,7,6,6,5
192.334,5,5,5,3
192.334,2,4,3,0
192.335,0,1,1,0
192.335,0,1,1,0
192.336,1,5,4,0
192.337,2,5,4,1
192.337,1,5,3,-1
192.338,0,3,2,-2
192.338,-2,2,2,-1
192.339,0,4,4,0
192.339,0,4,5,0
192.34,0,3,3,0
192.341,0,3,3,0
192.341,1,8,8,2
192.342,3,9,8,1
192.342,2,7,6,1
192.343,6,10,4,0
192.343,3,7,0,-6
192.344,-2,0,-2,-6
192.345,-5,-2,-3,-5
192.345,-3,-2,-3,-1
192.346,-1,-2,-1,0
192.346,1,0,0,2
192.347,2,-1,0,4
192.347,4,-1,0,8
192.348,9,0,0,9
192.349,10,0,0,9
192.349,10,0,0,10
192.35,10,0,0,10
192.35,11,2,2,11
192.351,11,3,2,10
192.351,10,4,4,9
192.352,10,5,5,8
192.353,7,5,4,4
192.353,4,3,2,4
192.354,4,4,3,2
192.354,1,2,2,1
192.355,0,2,2,1
192.355,1,3,2,0
192.356,1,4,2,1
192.357,1,4,2,0
192.357,2,4,2,0
192.358,3,5,2,0
192.358,1,4,2,-1
192.359,0,2,2,-1
192.36,0,3,3,0
192.36,0,3,3,0
192.361,0,6,5,0
192.361,2,9,9,0
192.362,0,9,8,0
192.362,-2,4,5,-2
192.363,-3,3,5,-1
192.364,-4,0,2,-2
192.364,-3,0,1,-1
192.365,-2,0,0,0
192.365,0,0,-1,2
192.366,6,2,0,5
192.366,12,8,0,2
192.367,7,3,-1,1
192.368,3,-2,-4,1
192.368,2,-4,-5,2
192.369,1,-7,-4,5
192.369,2,-6,-1,9
192.37,5,-3,1,14
192.37,12,2,5,16
192.371,14,5,6,16
192.372,16,7,7,14
192.372,16,9,5,11
192.373,17,12,4,6
192.373,14,12,2,0
192.374,5,7,1,-3
192.374,0,2,-1,-6
192.375,-4,-1,-2,-6
192.376,-5,-2,-1,-5
192.376,-5,-1,1,-1
192.377,-1,1,3,1
192.377,1,4,4,1
192.378,1,4,4,1
192.378,1,5,5,1
192.379,2,4,5,1
192.38,0,3,5,2
192.38,1,3,3,1
192.381,2,6,6,2
192.381,4,11,9,2
192.382,3,12,9,0
192.383,1,7,5,-1
192.383,0,7,4,-4
192.384,-2,3,0,-6
192.384,-5,-1,-3,-6
192.385,-5,-3,-4,-4
192.385,-3,-3,-3,-1
192.386,-3,-3,-1,2
192.387,0,-2,0,5
192.387,4,-1,0,9
192.388,7,-1,0,10
192.388,10,0,0,10
192.389,11,0,0,10
192.389,10,0,0,11
192.39,11,2,3,11
192.391,12,5,5,12
192.391,12,8,6,11
192.392,11,6,5,7
192.392,6,1,0,4
192.393,5,0,-1,2
192.393,5,3,0,2
192.394,6,5,2,1
192.395,4,4,1,0
192.395,2,4,2,0
192.396,1,3,1,-1
192.396,0,3,0,-2
192.397,0,4,3,0
192.398,0,3,3,0
192.398,1,3,3,0
192.399,1,4,2,-1
192.399,0,3,2,0
192.4,0,3,3,0
192.4,0,6,5,1
192.401,3,9,8,1
192.402,3,10,8,0
192.402,0,9,5,-2
192.403,-2,4,3,-4
192.403,-2,4,2,-3
192.404,-3,1,0,-4
192.404,-4,0,-1,-2
192.405,-3,-2,-2,0
192.406,0,-1,-1,1
192.406,2,1,1,4
192.407,4,1,1,6
192.407,4,0,-1,5
192.408,5,-2,-2,7
192.408,6,-2,-2,8
192.409,9,0,0,10
192.41,10,0,0,11
192.41,12,2,1,11
192.411,12,4,2,11
192.411,12,4,2,9
192.412,12,6,5,8
192.412,9,5,4,6
192.413,8,5,2,2
192.414,4,3,2,1
192.414,3,3,1,0
192.415,2,3,1,0
192.415,0,3,1,0
192.416,1,2,1,0
192.416,1,3,1,0
192.417,1,4,2,0
192.418,1,3,2,0
192.418,0,4,2,0
192.419,1,5,3,0
192.419,2,5,3,0
192.42,1,5,2,-1
192.42,1,4,3,-1
192.421,2,10,9,0
192.422,1,12,10,-2
192.422,-2,9,9,-4
192.423,-6,4,6,-4
192.423,-7,0,2,-5
192.424,-9,-6,-2,-4
192.424,-7,-4,-1,0
192.425,-1,-1,1,6
192.426,5,1,1,8
192.426,13,6,1,7
192.427,14,6,0,6
192.427,11,2,-3,4
192.428,8,-2,-6,2
192.428,6,-4,-6,4
192.429,6,-2,-3,5
192.43,6,-2,-2,7
192.43,9,1,1,9
192.431,11,3,4,9
192.431,9,3,4,9
192.432,8,5,6,8
192.433,7,5,7,8
192.433,6,5,6,6
192.434,4,3,4,5
192.434,3,2,3,3
192.435,2,3,3,1
192.435,2,3,1,2
192.436,6,7,2,0
192.437,6,8,1,-2
192.437,2,5,0,-3
192.438,0,3,0,-4
192.438,-2,2,0,-3
192.439,-2,1,1,-2
192.439,-2,2,3,0
192.44,0,2,2,0
192.441,0,4,5,1
192.441,3,10,9,2
192.442,2,9,9,0
192.442,0,7,7,-1
192.443,0,6,5,-1
192.443,-2,4,3,-4
192.444,-4,0,0,-4
192.445,-5,-1,-1,-2
192.445,-2,-1,0,0
192.446,0,0,1,3
192.446,4,2,2,4
192.447,4,0,0,4
192.447,4,-3,-3,5
192.448,5,-3,-3,7
192.449,8,-2,-2,9
192.449,11,0,0,10
192.45,11,1,0,9
192.45,10,1,1,10
192.451,10,2,2,11
192.451,13,6,4,10
192.452,13,8,5,9
192.453,13,10,3,5
192.453,11,9,1,0
192.454,5,5,0,-1
192.454,0,0,-1,-4
192.455,-4,-2,-2,-4
192.455,-4,0,1,0
192.456,-2,0,2,0
192.457,0,4,6,3
192.457,2,5,6,4
192.458,4,5,5,2
192.458,3,6,5,2
192.459,1,3,4,0
192.459,-1,2,2,0
192.46,0,1,2,0
192.461,0,2,3,0
192.461,2,10,10,2
192.462,3,11,10,1
192.462,1,8,6,0
192.463,5,12,5,0
192.463,6,10,0,-7
192.464,0,4,-3,-10
192.465,-5,-1,-4,-9
192.465,-6,-4,-4,-4
192.466,-4,-3,-3,-2
192.466,-3,-4,-2,0
192.467,-1,-5,-2,4
192.467,2,-4,-1,9
192.468,8,-2,1,13
192.469,10,0,2,12
192.469,10,0,3,14
192.47,11,2,5,15
192.47,13,4,7,15
192.471,14,6,6,13
192.472,11,4,4,9
192.472,8,3,3,6
192.473,6,3,2,5
192.473,7,5,4,4
192.474,6,7,5,3
192.474,4,5,1,0
192.475,1,3,0,-2
192.476,0,1,-1,-2
192.476,0,2,0,-2
192.477,0,3,0,-2
192.477,0,2,0,-2
192.478,0,3,2,0
192.478,1,4,2,0
192.479,1,3,3,0
192.48,1,2,1,0
192.48,0,2,2,0
192.481,2,7,5,1
192.481,5,13,11,2
192.482,4,11,9,0
192.482,1,8,6,-2
192.483,0,7,4,-4
192.484,-4,2,0,-6
192.484,-5,0,-1,-5
192.485,-4,-2,-3,-3
192.485,-2,-2,-1,0
192.486,0,-1,0,2
192.486,1,0,1,4
192.487,2,-1,0,6
192.488,4,-2,0,8
192.488,6,-2,0,10
192.489,10,0,1,11
192.489,12,1,1,12
192.49,13,3,1,11
192.49,13,3,1,10
192.491,11,2,1,8
192.492,10,4,3,7
192.492,5,2,3,5
192.493,3,0,2,5
192.493,2,1,4,6
192.494,4,4,6,6
192.494,4,4,5,4
192.495,4,5,4,4
192.496,6,8,4,4
192.496,10,10,2,0
192.497,7,8,-1,-6
192.497,0,3,-2,-7
192.498,-3,0,-3,-6
192.498,-2,1,-1,-5
192.499,-2,1,0,-3
192.5,0,4,2,-1
192.5,0,5,4,0
192.501,3,10,8,1
192.501,4,11,10,0
192.502,2,10,8,-1
192.503,-1,6,4,-3
192.503,-2,4,4,-3
192.504,-3,1,1,-3
192.504,-4,-1,0,-4
192.505,-4,-2,-1,0
192.505,-1,-1,0,1
192.506,1,0,1,5
192.507,5,1,2,6
192.507,4,-2,-1,5
192.508,4,-3,-1,7
192.508,6,-3,-1,9
192.509,10,0,1,11
192.509,11,1,1,11
192.51,12,2,1,11
192.511,12,2,2,10
192.511,11,3,3,10
192.512,12,8,6,8
192.512,10,7,5,5
192.513,5,3,2,2
192.513,2,2,0,1
192.514,3,3,1,1
192.515,2,3,1,0
192.515,3,5,2,0
192.516,4,6,2,-1
192.516,0,3,1,-2
192.517,-2,1,2,-1
192.517,-3,1,2,0
192.518,-2,3,4,0
192.519,0,3,5,2
192.519,0,3,6,2
192.52,0,4,5,2
192.52,3,6,5,2
192.521,6,12,8,2
192.521,6,13,8,-1
192.522,2,9,4,-3
192.523,-1,5,2,-5
192.523,-3,2,0,-6
192.524,-5,0,-2,-6
192.524,-4,-1,-2,-3
192.525,-3,-1,-2,-1
192.526,0,-1,0,1
192.526,2,0,-1,2
192.527,2,-1,0,4
192.527,4,-1,0,7
192.528,7,0,1,10
192.528,9,0,0,10
192.529,9,-1,0,9
192.529,9,0,0,10
192.53,10,1,2,12
192.531,11,3,4,11
192.531,12,5,4,10
192.532,12,7,6,9
192.532,9,5,3,5
192.533,6,4,2,2
192.534,3,3,2,2
192.534,2,3,2,1
192.535,1,2,1,0
192.535,0,0,1,0
192.536,0,2,3,0
192.536,0,4,4,1
192.537,1,4,3,0
192.538,1,4,3,1
192.538,5,7,2,0
192.539,3,6,0,-3
192.539,1,4,1,-2
192.54,0,3,1,-1
192.54,1,4,2,-2
192.541,2,8,4,0
192.542,5,12,5,0
192.542,6,11,3,-4
192.543,2,10,3,-5
192.543,-4,1,0,-8
192.544,-11,-4,0,-5
192.544,-9,-4,0,-1
192.545,-4,-3,1,1
192.546,0,0,4,6
192.546,4,2,5,6
192.547,4,0,1,6
192.547,3,-2,0,6
192.548,4,-4,-1,8
192.548,5,-3,0,10
192.549,8,-2,0,12
192.55,11,0,2,14
192.55,13,2,3,13
192.551,15,5,3,13
192.551,17,9,4,12
192.552,19,12,3,6
192.552,12,8,0,1
192.553,7,4,-1,-1
192.554,3,3,-2,-4
192.554,0,0,-2,-4
192.555,-2,0,-1,-2
192.555,-2,0,0,-1
192.556,-1,2,3,1
192.557,1,4,3,1
192.557,1,5,5,1
192.558,1,5,4,1
192.558,3,7,6,2
192.559,2,5,4,0
192.559,1,4,3,0
192.56,0,2,2,-1
192.561,0,3,4,0
192.561,2,9,9,1
192.562,2,10,9,0
192.562,0,6,6,-2
192.563,0,5,5,-3
192.563,-3,2,1,-4
192.564,-4,0,0,-3
192.565,-3,-1,-1,-3
192.565,-2,-2,-2,0
192.566,0,-1,-1,2
192.566,3,0,0,5
192.567,4,0,0,6
192.567,5,-1,0,7
192.568,8,0,-1,8
192.569,8,-1,-2,8
192.569,8,-2,-1,9
192.57,9,-2,-1,10
192.57,11,1,2,12
192.571,12,2,3,11
192.571,12,6,6,11
192.572,10,5,5,9
192.573,8,4,4,7
192.573,7,4,3,5
192.574,7,6,4,3
192.574,6,5,2,0
192.575,4,6,3,0
192.575,3,6,3,-1
192.576,2,6,1,-4
192.577,0,2,-1,-7
192.577,-5,-1,-3,-5
192.578,-5,-1,0,-3
192.578,-2,1,2,0
192.579,0,4,5,2
192.579,2,4,5,4
192.58,3,5,5,2
192.581,3,6,6,1
192.581,4,10,9,1
192.582,3,11,8,0
192.582,1,9,6,-3
192.583,0,9,5,-3
192.583,-1,4,1,-6
192.584,-4,0,0,-5
192.585,-5,-2,-3,-4
192.585,-4,-2,-1,-1
192.586,0,0,0,1
192.586,1,0,0,3
192.587,2,-3,-2,5
192.588,4,-4,-2,6
192.588,5,-2,0,9
192.589,8,0,0,12
192.589,12,1,2,13
192.59,13,1,1,13
192.59,13,2,2,12
192.591,14,5,3,11
192.592,13,7,5,9
192.592,10,6,5,7
192.593,6,4,3,4
192.593,4,2,2,1
192.594,2,2,2,0
192.594,1,2,1,0
192.595,1,3,2,0
192.596,2,4,2,0
192.596,0,2,2,0
192.597,0,3,2,0
192.597,1,3,2,0
192.598,1,5,2,0
192.598,2,5,3,0
192.599,2,3,2,0
192.6,1,3,2,-1
192.6,0,3,2,-1
192.601,0,6,6,0
192.601,1,9,9,1
192.602,1,10,8,0
192.602,0,6,5,-3
192.603,-2,5,4,-3
192.604,-5,0,1,-5
192.604,-5,-1,0,-2
192.605,-3,-2,0,0
192.605,0,0,2,2
192.606,1,0,1,4
192.607,4,0,0,4
192.607,4,-1,-1,5
192.608,5,-1,-2,8
192.608,9,-2,-3,10
192.609,14,2,-2,11
192.609,16,4,-2,8
192.61,13,2,-1,7
192.611,10,2,0,7
192.611,9,1,0,7
192.612,8,4,2,7
192.612,7,4,4,6
192.613,6,5,4,4
192.613,6,5,4,4
192.614,5,5,3,2
192.615,3,4,1,1
192.615,5,6,1,0
192.616,3,5,1,-2
192.616,0,3,1,-2
192.617,-2,1,1,-2
192.617,-2,1,1,-3
192.618,-3,1,2,-2
192.619,-2,3,5,1
192.619,0,3,6,2
192.62,0,3,5,2
192.62,1,3,4,2
192.621,4,10,10,4
192.621,6,13,11,2
192.622,4,10,7,0
192.623,4,10,5,-1
192.623,3,9,1,-8
192.624,-5,0,-4,-10
192.624,-9,-5,-4,-7
192.625,-7,-5,-3,-3
192.625,-3,-2,0,0
192.626,0,0,0,4
192.627,5,1,1,6
192.627,7,0,0,8
192.628,8,0,0,9
192.628,9,0,-1,9
192.629,9,0,-1,8
192.629,7,-4,-3,10
192.63,10,-2,-2,12
192.631,15,4,3,13
192.631,15,8,6,10
192.632,11,8,6,7
192.632,8,6,4,5
192.633,5,4,3,3
192.633,4,3,3,2
192.634,1,2,0,0
192.635,0,0,0,0
192.635,0,2,1,0
192.636,1,3,3,2
192.636,1,3,2,1
192.637,1,4,3,0
192.637,1,4,4,0
192.638,1,6,6,1
192.639,2,5,4,0
192.639,1,4,4,0
192.64,0,4,2,-2
192.64,0,4,2,-1
192.641,2,10,8,0
192.641,1,10,9,-1
192.642,-1,5,3,-3
192.643,-2,4,4,-2
192.643,-2,2,1,-4
192.644,-4,0,0,-2
192.644,-2,0,-1,-1
192.645,0,0,-1,0
192.646,2,0,-2,1
192.646,4,0,-1,3
192.647,5,0,-1,5
192.647,5,-1,0,6
192.648,7,-1,-2,7
192.648,7,-2,-2,7
192.649,8,0,0,9
192.65,11,0,0,11
192.65,11,3,2,11
192.651,10,2,3,11
192.651,10,4,5,9
192.652,8,5,6,8
192.653,7,4,5,7
192.653,5,4,4,5
192.654,5,4,3,3
192.654,4,4,3,2
192.655,3,4,2,0
192.655,2,4,1,-1
192.656,1,2,0,0
192.656,1,4,0,-1
192.657,1,3,1,-1
192.658,0,3,1,-1
192.658,0,3,2,-1
192.659,0,4,3,0
192.659,1,4,4,0
192.66,1,5,4,1
192.661,4,9,6,1
192.661,7,14,8,0
192.662,1,6,2,-5
192.662,-4,1,0,-5
192.663,-4,3,3,-2
192.663,-2,3,2,-3
192.664,-2,0,0,-1
192.665,0,2,0,0
192.665,2,2,0,1
192.666,3,1,0,2
192.666,4,0,-1,1
192.667,2,-1,-3,3
192.667,4,-1,-1,5
192.668,5,-1,0,7
192.669,5,-1,0,8
192.669,7,-1,1,10
192.67,6,-2,1,12
192.67,7,0,4,14
192.671,10,2,5,14
192.671,12,6,8,14
192.672,13,7,7,10
192.673,10,6,4,7
192.673,11,8,3,5
192.674,12,10,1,0
192.674,6,5,-2,-5
192.675,-3,0,-3,-5
192.675,-5,-2,0,-4
192.676,-4,0,0,-2
192.677,-3,0,1,0
192.677,0,3,4,2
192.678,3,5,5,3
192.678,5,7,5,3
192.679,7,9,3,0
192.679,2,5,1,-3
192.68,-1,2,1,-2
192.681,0,5,4,0
192.681,1,8,8,0
192.682,1,9,8,0
192.682,2,9,5,0
192.683,6,12,5,-2
192.683,1,4,-1,-7
192.684,-5,-1,-5,-8
192.685,-8,-5,-5,-6
192.685,-5,-4,-2,-1
192.686,-1,-1,1,3
192.686,2,1,3,6
192.687,4,-1,1,7
192.687,4,-3,0,9
192.688,6,-3,0,10
192.689,9,0,1,11
192.689,11,1,1,12
192.69,11,1,3,12
192.69,12,2,3,12
192.691,11,3,2,10
192.691,11,6,5,9
192.692,9,7,5,7
192.693,6,5,4,4
192.693,4,3,2,1
192.694,1,0,1,0
192.694,0,0,0,0
192.695,2,4,1,0
192.696,2,4,3,0
192.696,1,3,2,0
192.697,0,2,2,0
192.697,1,3,2,0
192.698,2,4,2,0
192.698,3,7,4,0
192.699,2,6,3,-1
192.7,1,5,2,-2
192.7,0,4,3,-1
192.701,0,9,8,0
192.701,0,9,8,-1
192.702,0,7,6,-1
192.702,-2,4,4,-3
192.703,-4,1,1,-5
192.704,-6,-1,0,-3
192.704,-3,0,1,0
192.705,-1,0,1,2
192.705,2,2,2,2
192.706,4,2,1,3
192.706,4,1,0,3
192.707,5,0,-2,5
192.708,5,-2,-2,6
192.708,6,-3,-3,7
192.709,7,-3,-3,8
192.709,8,-2,-1,11
192.71,10,0,1,13
192.711,14,4,3,13
192.711,14,6,4,11
192.712,12,6,5,8
192.712,9,5,4,6
192.713,6,3,2,3
192.713,5,5,4,4
192.714,5,6,3,1
192.715,3,5,3,0
192.715,1,4,1,-1
192.716,0,3,0,-2
192.716,0,2,0,-2
192.717,0,2,1,-1
192.717,-1,1,1,-1
192.718,0,2,2,0
192.719,0,4,3,0
192.719,1,5,3,0
192.72,1,4,3,0
192.72,1,5,4,0
192.721,3,10,8,1
192.721,3,10,8,0
192.722,1,8,6,-2
192.723,0,6,4,-3
192.723,-1,5,2,-3
192.724,-5,0,-1,-5
192.724,-5,-1,0,-2
192.725,-2,-1,-1,0
192.725,0,0,0,3
192.726,3,1,0,3
192.727,3,0,0,4
192.727,4,-2,-1,5
192.728,4,-3,-1,7
192.728,7,-2,-1,9
192.729,10,0,0,10
192.729,10,1,1,11
192.73,12,3,1,11
192.731,12,4,3,12
192.731,12,5,3,10
192.732,10,6,4,7
192.732,7,5,3,5
192.733,5,3,2,3
192.733,5,5,4,2
192.734,2,2,1,0
192.735,1,3,2,0
192.735,0,2,0,0
192.736,1,2,2,0
192.736,1,3,2,0
192.737,0,3,2,0
192.738,1,3,2,0
192.738,0,4,2,0
192.739,1,4,2,0
192.739,1,4,2,0
192.74,2,3,2,0
192.74,2,6,4,0
192.741,4,11,9,0
192.742,3,11,8,-1
192.742,-1,6,4,-2
192.743,-1,5,3,-4
192.743,-3,1,1,-5
192.744,-4,0,0,-3
192.744,-3,-1,-1,-3
192.745,-2,-3,-2,0
192.745,1,-1,0,2
192.746,4,2,0,4
192.747,5,0,0,5
192.747,5,-2,-2,5
192.748,6,-2,-2,7
192.748,7,-3,-2,8
192.749,8,-2,0,11
192.75,11,1,2,12
192.75,13,5,5,12
192.751,12,5,5,12
192.751,13,8,6,9
192.752,10,7,5,7
192.752,7,5,2,2
192.753,4,1,0,1
192.754,3,1,-1,0
192.754,3,3,0,0
192.755,3,3,0,0
192.755,1,3,1,0
192.756,1,4,3,0
192.756,0,4,3,1
192.757,1,3,3,0
192.758,0,3,1,0
192.758,0,3,2,0
192.759,0,3,2,0
192.759,1,4,4,1
192.76,2,5,4,0
192.76,2,5,5,0
192.761,2,10,8,1
192.762,2,10,8,0
192.762,1,7,4,-3
192.763,-1,6,3,-4
192.763,-4,2,1,-5
192.764,-4,0,-1,-3
192.764,-4,-1,-1,-2
192.765,-2,-1,-1,1
192.766,0,-1,0,3
192.766,3,0,1,4
192.767,4,0,0,5
192.767,5,-2,0,7
192.768,6,-3,-2,7
192.768,7,-2,0,10
192.769,11,0,0,12
192.77,12,2,2,11
192.77,14,4,3,11
192.771,13,4,2,10
192.771,12,7,4,7
192.772,8,7,4,5
192.773,4,2,2,2
192.773,2,3,2,2
192.774,2,3,2,2
192.774,0,1,1,1
192.775,2,2,2,1
192.775,4,4,2,2
192.776,5,6,2,0
192.777,0,2,1,0
192.777,0,2,2,0
192.778,0,3,2,-1
192.778,0,4,3,0
192.779,1,5,4,1
192.779,2,6,4,0
192.78,1,6,4,0
192.781,1,6,5,-1
192.781,1,8,6,-1
192.782,0,8,7,-1
192.782,0,6,4,-2
192.783,0,6,4,-3
192.783,-3,2,0,-5
192.784,-4,-1,-3,-4
192.785,-2,-1,-2,-1
192.785,0,0,0,0
192.786,2,1,0,3
192.786,3,0,0,4
192.787,4,-2,-1,5
192.787,5,-2,-1,8
192.788,7,-2,-1,9
192.789,8,-1,-1,10
192.789,10,0,0,11
192.79,12,3,3,12
192.79,13,3,3,12
192.791,13,4,3,10
192.791,12,6,4,8
192.792,10,6,4,6
192.793,5,3,2,3
192.793,6,5,3,2
192.794,4,4,2,0
192.794,1,2,1,0
192.795,0,2,0,-1
192.796,0,2,0,0
192.796,0,2,0,-1
192.797,0,3,1,-1
192.797,0,4,2,-1
192.798,0,4,3,0
192.798,0,4,4,0
192.799,0,3,4,0
192.799,0,4,4,1
192.8,2,6,4,1
192.801,6,10,8,1
192.801,5,12,8,-1
192.802,0,8,5,-3
192.802,-3,4,3,-3
192.803,-1,4,3,-4
192.804,-3,1,0,-4
192.804,-3,0,0,-2
192.805,0,0,-1,-1
192.805,0,0,-1,0
192.806,2,0,-1,1
192.806,4,0,-1,2
192.807,3,-2,-2,4
192.807,3,-3,-1,6
192.808,4,-4,0,7
192.809,5,-2,1,9
192.809,4,-3,2,12
192.81,8,0,6,15
192.81,11,3,7,16
192.811,12,5,6,13
192.812,12,8,7,12
192.812,12,7,4,9
192.813,15,10,3,4
192.813,9,7,0,0
192.814,3,2,-1,-3
192.814,0,0,-2,-3
192.815,0,0,-2,-3
192.816,0,2,0,-1
192.816,2,4,2,0
192.817,3,5,2,0
192.817,2,6,2,-1
192.818,0,4,1,-1
192.818,0,4,1,-1
192.819,0,4,3,0
192.82,1,4,3,0
192.82,0,4,3,0
192.821,2,9,8,0
192.821,2,8,7,0
192.822,0,5,5,-1
192.822,0,6,4,-2
192.823,-1,5,5,-1
192.824,-3,1,0,-3
192.824,-3,0,0,-1
192.825,-3,-2,-1,0
192.825,0,0,0,2
192.826,2,1,1,3
192.826,3,0,0,5
192.827,4,-1,-1,5
192.828,5,-3,-2,7
192.828,8,-2,-1,9
192.829,11,0,0,10
192.829,12,2,0,10
192.83,12,4,2,10
192.831,11,3,3,10
192.831,8,2,4,8
192.832,6,4,5,8
192.832,6,5,6,7
192.833,5,4,5,5
192.833,5,6,4,2
192.834,3,4,2,1
192.834,3,5,2,0
192.835,3,4,0,0
192.836,4,6,0,-2
192.836,3,5,0,-4
192.837,0,4,0,-3
192.837,-1,1,0,-4
192.838,-4,-3,-3,-3
192.839,-1,0,0,0
192.839,1,3,3,2
192.84,3,4,3,3
192.84,6,8,5,2
192.841,6,13,11,3
192.841,4,12,9,1
192.842,1,8,6,-1
192.843,0,6,4,-3
192.843,-2,4,2,-4
192.844,-5,0,-1,-5
192.844,-6,-2,-2,-3
192.845,-3,-2,-1,0
192.845,0,0,0,1
192.846,3,1,2,4
192.847,3,0,0,4
192.847,4,-2,-1,6
192.848,6,-1,-1,7
192.848,7,-1,0,10
192.849,10,1,0,10
192.849,11,2,2,11
192.85,12,3,2,11
192.851,12,4,3,9
192.851,12,5,3,7
192.852,8,4,3,5
192.852,5,3,1,4
192.853,4,2,2,3
192.853,4,4,3,3
192.854,2,3,3,2
192.855,1,2,2,1
192.855,0,2,3,1
192.856,1,2,3,0
192.856,0,1,2,0
192.857,1,3,3,1
192.857,1,4,3,1
192.858,2,4,4,0
192.859,1,5,4,1
192.859,1,5,3,0
192.86,0,4,1,-1
192.86,1,6,5,-1
192.861,2,11,9,0
192.861,2,11,8,-1
192.862,-1,5,3,-4
192.863,-2,5,2,-5
192.863,-3,1,0,-5
192.864,-4,0,0,-4
192.864,-3,-1,-1,-2
192.865,-2,0,-1,0
192.865,2,0,0,2
192.866,3,1,0,3
192.867,3,-1,-1,5
192.867,5,-1,-1,7
192.868,6,-2,-2,9
192.868,9,0,0,10
192.869,10,0,0,10
192.869,11,1,0,10
192.87,11,3,2,12
192.871,12,3,2,10
192.871,11,5,4,9
192.872,10,6,4,7
192.872,8,5,3,5
192.873,7,5,2,2
192.874,4,5,3,2
192.874,2,3,1,0
192.875,0,2,1,0
192.875,0,3,1,0
192.876,0,3,3,0
192.876,0,4,3,0
192.877,0,2,2,-1
192.878,-1,2,2,0
192.878,0,2,2,0
192.879,1,3,3,0
192.879,1,4,3,0
192.88,2,6,3,0
192.88,2,8,6,0
192.881,2,10,7,0
192.882,2,9,6,0
192.882,0,6,3,-3
192.883,0,5,4,-3
192.883,-3,1,0,-4
192.884,-3,0,-1,-3
192.885,-3,-1,-2,-1
192.885,-1,-1,0,1
192.886,1,0,0,3
192.886,3,0,1,5
192.887,4,-1,0,6
192.887,5,-1,0,8
192.888,7,-1,0,8
192.888,9,0,0,10
192.889,10,0,0,10
192.89,10,1,1,11
192.89,12,2,3,10
192.891,11,4,3,9
192.891,10,6,5,8
192.892,8,4,3,5
192.893,6,3,1,4
192.893,5,2,0,2
192.894,3,1,0,2
192.894,3,2,2,1
192.895,4,4,3,0
192.895,2,3,3,1
192.896,2,4,2,0
192.897,1,4,2,0
192.897,0,3,1,0
192.898,1,4,2,0
192.898,1,5,3,-1
192.899,0,5,3,0
192.899,0,3,2,-1
192.9,0,3,2,0
192.901,3,9,6,0
192.901,5,12,7,0
192.902,3,10,6,-1
192.902,1,7,4,-3
192.903,-2,5,2,-5
192.903,-4,1,0,-6
192.904,-5,0,-1,-5
192.905,-4,-1,0,-2
192.905,-3,-1,0,0
192.906,-1,-2,0,2
192.906,0,-2,0,5
192.907,2,-3,0,7
192.907,5,-1,0,10
192.908,9,0,1,11
192.909,11,1,1,13
192.909,13,1,0,11
192.91,12,0,0,10
192.91,12,2,1,11
192.911,10,2,3,10
192.911,10,5,5,9
192.912,8,5,5,8
192.913,7,4,3,5
192.913,6,4,2,2
192.914,3,3,2,1
192.914,3,4,2,0
192.915,2,4,3,0
192.915,2,6,3,0
192.916,2,5,2,-1
192.917,2,6,2,-1
192.917,1,4,1,-3
192.918,0,3,0,-4
192.918,-2,1,0,-3
192.919,-2,2,1,-2
192.919,0,3,2,0
192.92,0,3,2,0
192.921,2,7,6,2
192.921,4,9,7,1
192.922,2,8,6,0
192.922,2,8,7,0
192.923,0,7,5,-2
192.924,-1,6,5,-1
192.924,0,5,3,-2
192.925,-2,0,-1,-4
192.925,-4,-4,-4,-3
192.926,-2,-3,-2,1
192.926,0,-2,-2,3
192.927,3,-3,-1,6
192.928,6,-2,-1,8
192.928,8,-2,-1,9
192.929,10,0,1,10
192.929,10,0,0,10
192.93,11,1,3,13
192.93,12,4,5,12
192.931,12,6,6,12
192.932,12,7,6,8
192.932,7,6,6,5
192.933,4,3,3,4
192.933,5,3,2,4
192.934,8,7,1,2
192.934,10,9,0,-2
192.935,3,5,-1,-5
192.936,-2,1,-1,-6
192.936,-5,-1,-1,-3
192.937,-4,-1,0,-2
192.937,-3,0,2,0
192.938,0,2,5,3
192.938,2,4,6,4
192.939,4,6,6,4
192.94,2,4,4,2
192.94,2,5,4,0
192.941,3,10,8,2
192.941,3,11,9,0
192.942,1,7,5,-2
192.943,0,7,4,-3
192.943,-2,4,3,-5
192.944,-5,0,0,-4
192.944,-4,0,0,-3
192.945,-2,-1,-2,-1
192.945,-1,-2,-2,0
192.946,1,0,-1,3
192.947,3,-1,-1,4
192.947,4,-1,-1,6
192.948,7,-1,-1,9
192.948,9,-1,-1,9
192.949,9,0,-1,10
192.949,11,0,0,12
192.95,13,3,4,13
192.951,13,5,4,11
192.951,11,5,5,9
192.952,9,5,4,7
192.952,8,4,3,6
192.953,10,8,4,4
192.953,9,11,5,0
192.954,1,5,2,-3
192.955,-2,1,1,-3
192.955,-3,0,0,-4
192.956,-2,0,0,-1
192.956,-1,1,0,0
192.957,2,4,2,1
192.957,3,4,3,1
192.958,2,4,4,1
192.959,1,4,3,0
192.959,0,4,3,0
192.96,0,4,3,0
192.96,1,6,6,1
192.961,2,9,8,1
192.961,1,7,6,0
192.962,1,7,4,-1
192.963,1,6,4,-1
192.963,0,3,1,-3
192.964,-2,1,0,-2
192.964,-1,0,-1,-2
192.965,-1,-1,-1,-1
192.965,0,-1,-2,1
192.966,1,0,0,4
192.967,4,-1,-1,4
192.967,4,-2,-2,6
192.968,5,-2,-1,8
192.968,7,-1,0,11
192.969,10,0,0,12
192.969,12,1,1,11
192.97,13,3,2,11
192.971,12,3,2,10
192.971,11,5,5,9
192.972,9,5,5,8
192.972,6,3,3,4
192.973,5,3,2,2
192.974,4,4,3,2
192.974,4,5,3,1
192.975,2,4,2,-1
192.975,0,2,1,0
192.976,0,2,1,-1
192.976,0,3,2,-1
192.977,0,5,4,-1
192.978,0,6,5,0
192.978,1,6,4,0
192.979,0,2,0,-2
192.979,-1,-1,-2,-1
192.98,0,1,1,0
192.98,3,8,6,2
192.981,5,11,9,2
192.982,2,10,8,0
192.982,0,7,5,-2
192.983,-1,6,4,-3
192.983,-3,1,1,-5
192.984,-5,-1,0,-3
192.984,-3,-3,-2,-2
192.985,-1,-1,0,1
192.986,1,0,1,4
192.986,4,2,2,6
192.987,4,-1,0,6
192.987,5,-2,-2,8
192.988,8,-3,-3,9
192.988,11,0,0,10
192.989,11,2,0,11
192.99,12,2,2,11
192.99,11,3,2,10
192.991,10,3,2,9
192.991,10,6,4,7
192.992,7,5,3,4
192.992,4,3,3,3
192.993,3,3,3,3
192.994,3,3,2,2
192.994,2,3,1,0
192.995,0,1,1,0
192.995,1,2,2,1
192.996,1,5,3,2
192.996,2,4,3,0
192.997,2,3,1,0
192.998,1,4,1,-1
192.998,0,3,2,0
192.999,0,3,3,0
192.999,0,3,3,0
193,0,3,3,0
193,1,7,6,0
193.001,2,10,9,0
193.002,1,9,8,0
193.002,0,7,6,-1
193.003,0,5,3,-3
193.003,-1,2,0,-4
193.004,0,1,-2,-4
193.004,-1,-2,-4,-2
193.005,0,-2,-3,0
193.006,2,1,0,1
193.006,2,0,0,1
193.007,2,-1,0,5
193.007,6,0,0,8
193.008,8,0,-1,8
193.009,8,0,-1,8
193.009,8,0,0,9
193.01,10,1,2,11
193.01,12,5,5,13
193.011,13,6,5,11
193.011,11,5,3,7
193.012,8,4,3,5
193.013,5,2,2,4
193.013,4,2,3,4
193.014,5,5,3,3
193.014,4,5,2,0
193.015,1,4,3,0
193.015,1,5,4,0
193.016,2,6,3,0
193.017,0,4,2,-2
193.017,-2,1,0,-3
193.018,-2,0,0,-2
193.018,-1,0,1,0
193.019,0,2,3,2
193.019,2,4,4,1
193.02,2,7,5,2
193.021,5,12,10,2
193.021,4,11,9,0
193.022,1,8,5,-1
193.022,0,5,3,-4
193.023,-2,4,2,-6
193.023,-5,2,0,-5
193.024,-4,-1,-1,-3
193.025,-2,-4,-4,0
193.025,2,-2,-4,1
193.026,3,0,0,3
193.026,4,0,2,6
193.027,6,0,0,7
193.027,7,-1,-1,8
193.028,8,0,0,9
193.029,9,-1,0,9
193.029,10,0,0,9
193.03,10,1,1,10
193.03,11,3,3,10
193.031,11,5,4,9
193.031,10,6,4,8
193.032,9,5,3,4
193.033,6,4,2,2
193.033,4,4,2,2
193.034,2,3,2,0
193.034,0,2,1,-1
193.035,0,1,2,0
193.035,0,4,3,0
193.036,0,4,4,0
193.037,0,3,3,0
193.037,0,3,3,0
193.038,1,4,3,0
193.038,1,3,1,0
193.039,1,5,4,0
193.04,1,4,4,0
193.04,0,5,6,0
193.041,2,10,10,1
193.041,2,12,10,0
193.042,0,8,8,-4
193.042,-5,5,6,-5
193.043,-9,-1,1,-6
193.044,-8,-4,0,-2
193.044,-4,-3,-2,0
193.045,1,-1,-2,2
193.045,5,0,-3,3
193.046,7,-1,-3,5
193.046,9,0,-3,9
193.047,14,3,-2,9
193.048,16,3,-2,7
193.048,13,5,0,6
193.049,8,3,1,5
193.049,3,-2,0,5
193.05,1,-4,0,6
193.05,2,-4,0,7
193.051,6,2,4,10
193.052,9,7,9,10
193.052,9,6,7,8
193.053,7,4,3,7
193.053,11,7,2,4
193.054,10,8,1,1
193.055,6,6,0,-1
193.055,3,4,0,-2
193.056,0,1,-2,-3
193.056,-2,0,-2,-3
193.057,-1,1,0,-1
193.057,1,5,4,1
193.058,3,7,6,2
193.058,2,5,3,-1
193.059,-1,1,2,0
193.06,1,2,1,0
193.06,4,8,5,0
193.061,3,11,10,0
193.061,0,10,10,0
193.062,-2,5,4,-4
193.062,-4,4,4,-3
193.063,-5,1,2,-3
193.064,-4,0,1,-2
193.064,-5,-3,0,0
193.065,-2,-3,-2,2
193.065,3,0,0,4
193.066,8,4,1,6
193.067,7,0,0,5
193.067,5,-1,-1,6
193.068,4,-3,-2,7
193.068,6,-3,-1,9
193.069,8,-2,0,10
193.069,10,1,3,12
193.07,11,3,4,12
193.071,10,3,4,11
193.071,10,5,7,9
193.072,9,6,5,6
193.072,6,4,3,4
193.073,6,5,3,4
193.073,7,6,3,3
193.074,4,4,1,0
193.075,2,3,0,0
193.075,2,4,0,0
193.076,2,4,1,-1
193.076,2,5,1,-4
193.077,-2,3,1,-5
193.077,-5,1,1,-3
193.078,-1,3,3,0
193.079,0,4,3,0
193.079,1,4,2,0
193.08,2,5,3,0
193.08,2,6,5,1
193.081,3,8,7,2
193.081,4,10,8,0
193.082,1,7,4,0
193.083,1,4,1,-2
193.083,0,0,-1,-5
193.084,-3,0,-2,-4
193.084,-1,0,0,0
193.085,0,2,2,2
193.085,4,4,2,3
193.086,3,2,1,2
193.087,1,-3,-3,1
193.087,0,-5,-3,5
193.088,2,-5,-2,7
193.088,3,-4,0,9
193.089,7,0,3,13
193.09,12,3,6,15
193.09,14,6,5,13
193.091,13,5,4,10
193.091,11,7,5,9
193.092,9,5,2,5
193.092,6,2,0,5
193.093,6,3,0,5
193.094,8,5,1,2
193.094,7,7,3,0
193.095,1,3,0,-2
193.095,-1,1,0,-3
193.096,-1,1,0,-2
193.096,-2,1,1,-1
193.097,0,4,3,0
193.098,0,4,3,0
193.098,0,6,5,1
193.099,2,9,8,1
193.099,3,10,9,1
193.1,2,6,3,-2
193.1,0,5,2,-4
193.101,0,6,4,-4
193.102,-2,5,3,-2
193.102,0,6,3,-1
193.103,1,7,2,-2
193.103,0,3,0,-4
193.104,-4,-1,-1,-3
193.104,-4,-3,-2,0
193.105,0,0,0,4
193.106,6,3,2,6
193.106,7,3,1,5
193.107,5,0,0,5
193.107,4,-1,0,5
193.109,3,-4,-1,5
193.109,2,-3,0,7
193.109,3,-3,1,12
193.11,8,0,5,13
193.11,9,0,4,13
193.111,10,1,4,16
193.111,16,5,2,13
193.112,17,8,3,9
193.113,14,9,3,5
193.113,8,5,0,0
193.114,1,0,-2,-1
193.114,1,2,-1,0
193.115,2,0,-2,-1
193.115,2,2,0,0
193.116,1,3,1,-1
193.117,0,3,5,0
193.117,-2,3,5,0
193.118,-2,3,6,3
193.118,3,6,6,3
193.119,4,6,5,1
193.119,1,4,1,-1
193.12,-1,1,0,-3
193.121,1,7,5,0
193.121,2,11,9,0
193.122,3,10,6,-1
193.122,1,9,4,-4
193.123,-1,5,1,-5
193.123,-4,0,0,-5
193.124,-4,0,-1,-3
193.124,-3,-1,-2,-1
193.125,0,0,-1,0
193.126,2,0,-1,1
193.126,2,-1,0,4
193.127,3,-1,0,7
193.127,4,-2,0,7
193.128,5,-3,0,7
193.129,6,-2,1,12
193.129,10,0,0,12
193.13,14,3,0,10
193.13,15,7,3,11
193.131,16,9,3,8
193.131,13,7,2,6
193.132,8,3,2,7
193.133,8,5,3,5
193.133,7,5,3,2
193.134,3,2,0,0
193.134,0,0,-1,-1
193.135,0,2,-1,-1
193.135,1,4,0,-1
193.136,4,6,0,-1
193.137,5,7,2,0
193.137,4,8,7,3
193.138,3,6,7,3
193.138,0,2,4,0
193.139,-3,-1,1,-1
193.139,-6,-3,0,-1
193.14,-4,1,4,-1
193.141,-4,3,7,1
193.141,0,5,6,0
193.142,1,8,7,2
193.142,7,19,16,4
193.143,7,19,13,-1
193.144,-2,7,2,-11
193.144,-13,-7,-7,-13
193.145,-16,-11,-8,-10
193.145,-13,-10,-5,-4
193.146,-7,-9,-1,5
193.146,0,-7,-1,12
193.147,10,-2,0,15
193.148,13,-2,-1,17
193.148,21,3,0,19
193.149,28,11,2,16
193.149,24,11,3,13
193.15,17,7,1,7
193.15,10,3,0,1
193.151,5,3,0,0
193.152,2,2,0,0
193.152,2,0,-2,0
193.153,2,0,0,2
193.153,6,6,5,4
193.154,5,8,7,4
193.154,4,9,8,3
193.155,4,9,8,2
193.156,3,6,4,0
193.156,0,2,0,-3
193.157,-1,0,-4,-5
193.157,-2,0,-4,-5
193.158,-2,-1,-3,0
193.158,5,4,-1,0
193.159,8,9,3,0
193.16,4,7,3,-1
193.16,3,7,2,-2
193.161,3,10,3,-4
193.161,0,10,4,-5
193.162,-1,6,2,-4
193.162,-2,5,4,0
193.163,0,4,5,2
193.164,2,6,5,4
193.164,3,7,11,9
193.165,1,0,6,6
193.165,-1,-5,-1,0
193.166,-3,-6,-4,-1
193.166,-4,-9,-7,-1
193.167,-1,-7,-4,4
193.168,2,-6,-2,8
193.168,5,-4,-1,12
193.169,12,1,5,19
193.169,17,5,10,21
193.17,16,4,8,12
193.17,5,0,6,8
193.171,1,1,8,7
193.172,0,2,11,6
193.172,-3,-1,6,3
193.173,-3,0,7,4
193.173,-1,3,11,8
193.174,0,1,7,5
193.174,0,-2,0,-1
193.175,-1,0,0,0
193.176,2,7,6,5
193.176,8,8,5,5
193.177,9,4,-1,1
193.177,7,1,-7,-3
193.178,5,3,-5,-4
193.179,3,4,-2,-4
193.179,2,5,-2,-7
193.18,-1,3,0,-5
193.18,0,8,4,-1
193.181,4,15,11,1
193.181,6,16,13,3
193.182,4,12,9,0
193.183,0,6,1,-5
193.183,-4,-3,-7,-7
193.184,-2,-7,-17,-9
193.184,4,-2,-15,-5
193.185,9,3,-10,0
193.185,16,7,-7,4
193.186,19,14,5,13
193.187,19,9,3,9
193.187,10,2,2,9
193.188,6,0,6,13
193.188,7,-1,5,12
193.189,1,-10,-2,9
193.189,-1,-14,-8,3
193.19,0,-11,-6,3
193.191,1,-5,-1,5
193.191,6,3,0,3
193.192,11,14,4,1
193.192,12,16,4,0
193.193,10,17,8,0
193.193,6,12,10,1
193.194,0,5,4,-2
193.195,-5,2,7,1
193.195,-4,5,17,10
193.196,0,4,16,10
193.196,0,4,16,11
193.197,-1,0,11,7
193.197,-7,-4,5,0
193.198,-15,-8,7,3
193.199,-12,-8,5,2
193.199,-9,-10,-2,-2
193.2,-3,-1,-2,-4
193.2,1,9,6,-1
193.201,3,10,1,-7
193.202,0,6,-2,-9
193.202,0,4,-5,-8
193.203,5,10,-1,-4
193.203,7,13,7,3
193.204,8,13,11,6
193.204,4,6,9,4
193.205,0,1,5,5
193.205,1,-1,0,5
193.206,3,-1,0,4
193.207,1,-7,-6,1
193.207,1,-8,-8,4
193.208,6,-4,-5,8
193.208,12,0,-2,11
193.209,14,0,-6,7
193.209,16,2,-7,7
193.21,18,3,-11,2
193.211,17,5,-13,-3
193.211,14,10,-4,1
193.212,17,14,0,4
193.212,19,12,-5,-1
193.213,17,15,-2,-2
193.214,13,13,0,-2
193.214,9,12,1,0
193.215,10,12,2,1
193.215,9,12,9,9
193.216,9,14,23,19
193.216,5,13,35,25
193.217,-4,6,40,26
193.218,-16,-6,33,18
193.218,-29,-24,12,1
193.219,-38,-34,-6,-15
193.219,-42,-35,-12,-19
193.22,-36,-27,-12,-17
193.22,-21,-11,-8,-14
193.221,-7,4,-2,-11
193.222,1,15,7,-4
193.222,3,18,12,-1
193.223,3,15,13,1
193.223,4,15,13,0
193.224,-2,6,11,3
193.224,0,3,4,6
193.225,10,7,0,8
193.226,20,12,-6,2
193.226,23,8,-17,-2
193.227,26,7,-22,2
193.227,41,16,-23,2
193.228,48,29,-13,0
193.228,35,20,-9,1
193.229,20,10,0,8
193.23,14,2,-1,5
193.23,7,2,6,11
193.231,5,8,24,19
193.231,-1,1,26,22
193.232,-4,0,28,24
193.233,-6,-5,24,18
193.233,-15,-18,4,0
193.234,-29,-31,-15,-18
193.234,-35,-34,-19,-19
193.235,-28,-24,-14,-14
193.235,-14,-6,-5,-9
193.236,-2,4,0,-4
193.236,7,15,2,-1
193.237,16,20,3,0
193.238,19,23,9,10
193.238,24,24,10,11
193.239,22,19,8,11
193.239,21,14,0,4
193.24,20,19,6,3
193.241,15,24,18,7
193.241,9,20,22,11
193.242,3,9,14,4
193.242,-6,-4,1,-3
193.243,-16,-16,-6,-9
193.243,-20,-20,-12,-11
193.244,-20,-24,-18,-13
193.245,-17,-27,-28,-16
193.245,-9,-17,-23,-11
193.246,1,3,2,7
193.246,12,12,11,14
193.247,16,13,10,14
193.247,18,14,8,12
193.248,19,16,10,11
193.249,13,8,5,6
193.249,8,10,17,17
193.25,8,9,22,20
193.25,5,6,22,18
193.251,1,6,26,19
193.251,-4,-2,17,11
193.252,-17,-21,0,0
193.253,-21,-29,-14,-5
193.253,-12,-22,-21,-8
193.254,0,-10,-29,-16
193.254,10,1,-26,-18
193.255,10,8,-16,-9
193.256,22,29,12,14
193.256,37,45,31,24
193.257,38,39,17,6
193.257,19,20,-3,-14
193.258,0,2,-17,-24
193.258,-11,-9,-24,-25
193.259,-8,-3,-15,-13
193.26,3,7,-1,1
193.26,15,25,24,20
193.261,20,29,37,24
193.261,7,20,43,28
193.262,-1,8,36,23
193.262,-10,-4,19,5
193.263,-24,-24,-10,-15
193.264,-29,-30,-29,-34
193.264,-36,-30,-26,-27
193.265,-27,-20,-10,-6
193.265,-9,-4,8,12
193.266,7,5,12,15
193.266,9,5,11,14
193.267,8,0,0,5
193.268,5,-8,-16,-4
193.268,7,-4,-19,-6
193.269,15,7,-11,0
193.269,25,19,-3,5
193.27,31,24,0,6
193.27,31,28,11,16
193.271,32,32,24,25
193.272,29,24,17,15
193.272,14,4,-6,-6
193.273,0,-5,-18,-15
193.273,-3,-5,-14,-13
193.274,-2,4,3,0
193.274,3,15,25,16
193.275,4,12,25,18
193.276,1,4,16,9
193.276,-6,-6,1,-5
193.277,-17,-16,-7,-9
193.277,-18,-12,3,2
193.278,-12,-11,3,5
193.278,-7,-8,6,11
193.279,0,-5,0,3
193.28,2,-6,-16,-16
193.28,-4,3,-1,-5
193.281,5,23,29,20
193.281,13,22,30,21
193.282,5,0,0,-2
193.282,-2,-8,-17,-18
193.283,-7,-10,-29,-25
193.284,0,0,-20,-13
193.284,14,9,-14,-4
193.285,22,18,0,7
193.285,24,23,13,13
193.286,17,13,6,5
193.286,6,5,4,5
193.287,3,5,12,9
193.288,-2,3,22,20
193.288,-2,-1,19,17
193.289,-6,-6,13,11
193.289,-9,-7,12,9
193.29,-13,-17,0,2
193.29,-13,-19,-5,0
193.291,-7,-14,-10,-2
193.292,-2,-6,-6,0
193.292,5,11,18,19
193.293,11,12,23,28
193.293,15,5,14,23
193.294,13,0,2,11
193.295,9,-2,-6,0
193.295,2,-4,-10,-7
193.296,-1,-4,-12,-9
193.296,0,0,-10,-6
193.297,7,8,-3,-3
193.297,11,11,0,0
193.298,11,9,-4,-2
193.299,11,11,-1,-2
193.299,11,17,7,2
193.3,11,16,8,2
193.3,8,10,-2,-8
193.301,4,13,1,-6
193.301,7,17,4,-2
193.302,11,20,10,-1
193.303,4,12,3,-6
193.303,-4,-1,-10,-19
193.304,-14,-9,-18,-24
193.304,-13,-12,-25,-24
193.305,-7,-7,-20,-13
193.305,6,11,5,11
193.306,21,21,20,24
193.307,22,16,21,27
193.307,16,8,19,24
193.308,7,2,26,30
193.308,1,-10,10,14
193.309,-11,-20,-3,0
193.31,-14,-20,-11,-4
193.31,-9,-13,-8,-1
193.311,-3,-9,-9,-2
193.311,0,-3,-9,-4
193.312,5,4,-4,-1
193.312,14,15,0,1
193.313,18,23,9,3
193.314,15,20,7,0
193.314,13,21,11,2
193.315,13,20,4,-3
193.315,12,19,3,-5
193.316,9,17,4,-2
193.316,6,12,8,5
193.317,4,7,15,15
193.318,4,1,18,21
193.318,1,-2,21,24
193.319,-4,-5,24,17
193.319,-19,-20,5,-2
193.32,-31,-26,-3,-9
193.32,-25,-16,-4,-11
193.321,-18,-11,-7,-13
193.322,-14,-11,-12,-12
193.322,-7,-5,-7,-3
193.323,6,4,-1,2
193.323,12,9,-1,1
193.324,14,7,-7,-3
193.324,13,13,0,3
193.325,19,21,12,12
193.326,19,21,18,16
193.326,12,8,14,18
193.327,6,-4,-1,4
193.327,-3,-16,-19,-10
193.328,-9,-18,-20,-8
193.328,-1,-9,-10,4
193.329,13,4,0,12
193.33,21,11,5,12
193.33,18,10,0,3
193.331,15,12,-2,-1
193.331,13,11,-4,-3
193.332,12,12,0,1
193.332,13,12,7,10
193.333,15,15,18,20
193.334,13,11,17,17
193.334,7,9,22,22
193.335,5,2,12,10
193.335,-5,-11,-4,-5
193.336,-14,-17,-11,-11
193.337,-16,-13,-5,-7
193.337,-16,-14,-6,-8
193.338,-14,-7,1,-1
193.338,-6,-2,0,-2
193.339,-1,0,-4,-7
193.339,1,10,6,0
193.34,8,17,13,6
193.341,17,28,20,11
193.341,22,34,20,6
193.342,17,26,10,-2
193.342,9,19,3,-11
193.343,-3,6,-3,-20
193.343,-18,-9,-14,-23
193.344,-23,-15,-11,-14
193.345,-15,-10,-4,-2
193.345,-6,-6,-1,3
193.346,0,-2,0,6
193.346,3,-4,0,9
193.347,8,0,3,16
193.347,12,-1,2,16
193.348,11,-2,1,14
193.348,10,-3,0,14
193.349,12,1,4,15
193.35,16,6,8,18
193.35,19,9,8,16
193.351,18,10,7,9
193.351,9,4,1,1
193.352,2,1,-1,-1
193.353,2,4,2,0
193.353,5,9,5,0
193.354,2,6,2,-3
193.354,-2,0,0,-5
193.355,-3,0,-1,-2
193.355,0,3,3,2
193.356,4,7,6,3
193.357,6,9,5,0
193.357,2,7,3,-3
193.358,-1,5,1,-4
193.358,-1,5,3,-1
193.359,0,5,3,-1
193.359,1,5,2,-3
193.36,1,9,5,-3
193.361,0,11,8,-3
193.361,-1,8,6,-4
193.362,-3,4,3,-4
193.362,-3,3,2,-3
193.363,-4,-1,-1,-3
193.363,-5,-2,0,-1
193.364,-1,1,4,4
193.365,3,5,7,6
193.365,3,1,3,5
193.366,3,0,-1,1
193.366,1,-4,-5,1
193.367,3,-3,-5,2
193.368,3,-8,-7,6
193.368,9,-1,-1,12
193.369,12,0,0,13
193.369,14,3,4,17
193.37,16,4,4,15
193.37,14,3,2,10
193.371,12,6,5,9
193.372,9,5,4,6
193.372,6,5,4,4
193.373,6,7,6,4
193.373,4,8,6,2
193.374,4,8,5,1
193.374,2,6,3,-1
193.375,0,2,0,-4
193.376,-5,-1,-3,-7
193.376,-4,0,-3,-7
193.377,-3,1,0,-3
193.377,1,5,1,-2
193.378,2,5,0,-5
193.378,0,5,0,-4
193.379,2,9,5,0
193.379,6,14,12,5
193.38,8,18,16,6
193.381,6,16,14,1
193.381,-1,9,9,-4
193.382,-6,4,5,-5
193.382,-7,3,4,-5
193.383,-8,-1,1,-5
193.384,-9,-3,0,-5
193.384,-8,-7,-4,-3
193.385,-5,-6,-4,-2
193.385,-2,-3,-3,0
193.386,2,0,-2,2
193.386,3,0,-2,4
193.387,4,-5,-5,4
193.388,3,-8,-6,6
193.388,8,-5,-2,15
193.389,15,-1,2,23
193.389,23,8,10,27
193.39,25,11,12,23
193.39,21,11,11,18
193.391,17,10,8,12
193.392,10,5,3,6
193.392,4,-2,-6,-1
193.393,0,-5,-8,-3
193.393,0,-1,-2,0
193.394,3,2,0,1
193.394,3,4,2,0
193.395,2,5,2,-2
193.396,0,4,3,-2
193.396,-2,4,4,-1
193.397,-3,0,1,-2
193.397,-3,-1,0,-1
193.398,0,1,4,2
193.398,2,3,4,4
193.399,5,3,3,4
193.4,5,4,3,6
193.4,11,13,8,6
193.401,12,15,6,0
193.401,6,12,1,-9
193.402,0,12,0,-12
193.403,-4,7,0,-12
193.403,-8,3,0,-8
193.404,-8,-2,0,-4
193.404,-7,-5,-2,-1
193.405,-5,-7,-4,0
193.405,-5,-8,-2,2
193.406,-2,-9,-2,6
193.407,1,-8,-1,10
193.407,3,-6,2,17
193.408,11,-1,7,23
193.408,19,2,6,20
193.409,13,-4,-2,13
193.409,9,-5,-2,14
193.41,14,0,1,16
193.411,18,6,6,15
193.411,16,10,10,13
193.412,11,6,8,13
193.412,12,7,6,10
193.413,15,11,3,1
193.413,7,7,0,-8
193.414,-9,-5,-5,-8
193.415,-13,-9,-2,0
193.415,-2,-1,2,4
193.416,5,5,3,0
193.416,0,5,4,-5
193.417,-7,2,5,-3
193.417,-4,5,6,3
193.418,9,11,0,3
193.419,22,18,-7,-8
193.419,17,19,-5,-15
193.42,5,16,0,-13
193.42,0,19,11,-7
193.421,-5,13,12,-9
193.421,-16,0,7,-14
193.422,-28,-9,7,-7
193.423,-22,-9,6,2
193.423,-3,1,6,6
193.424,7,8,3,0
193.424,2,2,-1,1
193.425,6,1,-1,5
193.425,9,0,-2,6
193.426,8,-4,-8,1
193.427,3,-6,-7,1
193.427,0,-9,-5,8
193.428,5,-6,1,17
193.428,13,-2,4,22
193.429,19,2,2,15
193.43,11,-3,0,13
193.43,8,-2,3,16
193.431,11,3,8,17
193.431,13,6,8,16
193.432,16,8,5,10
193.432,14,10,3,6
193.433,16,16,6,7
193.434,20,20,5,4
193.434,21,20,-5,-16
193.435,-2,0,-19,-30
193.435,-20,-13,-19,-25
193.436,-21,-9,-6,-13
193.436,-12,0,6,-1
193.437,-4,7,15,3
193.438,-6,7,19,7
193.438,-9,0,14,11
193.439,0,3,14,15
193.439,8,8,13,14
193.44,15,16,14,7
193.44,7,15,12,0
193.441,-1,9,9,-5
193.442,-14,-5,0,-7
193.442,-9,-3,-3,0
193.443,11,11,-3,0
193.443,21,19,-7,-12
193.444,8,8,-13,-16
193.444,0,-1,-18,-17
193.445,-5,-7,-20,-25
193.446,-27,-24,-16,-13
193.446,-21,-23,-5,7
193.447,-2,-9,9,28
193.447,17,0,12,33
193.448,21,-2,6,32
193.448,26,0,2,27
193.449,24,2,8,30
193.45,27,7,10,33
193.45,41,22,7,18
193.451,35,28,7,-1
193.451,1,4,0,-11
193.452,-20,-14,-3,-8
193.452,-17,-14,-2,-3
193.453,-11,-9,2,1
193.454,-8,-5,2,7
193.454,5,5,5,8
193.455,16,16,8,9
193.455,17,16,7,6
193.456,9,5,-1,0
193.456,2,-5,-11,-2
193.457,9,4,-7,-3
193.458,9,8,-1,-5
193.458,-3,0,1,0
193.459,3,3,0,0
193.459,8,9,-2,-14
193.46,-6,7,3,-16
193.46,-19,3,12,-8
193.461,-16,3,14,-2
193.462,-14,0,10,-4
193.462,-12,2,11,0
193.463,-4,7,14,3
193.463,0,11,17,5
193.464,-8,-2,12,8
193.465,-8,-7,6,9
193.465,-3,-7,3,7
193.466,-1,-5,4,12
193.466,3,-6,2,13
193.467,4,-9,-1,18
193.467,13,-6,-6,20
193.468,29,3,-9,18
193.469,40,15,-11,8
193.469,32,14,-10,-2
193.47,10,0,-8,-6
193.47,-4,-8,-6,-4
193.471,-5,-4,0,2
193.471,2,4,8,11
193.472,15,16,13,20
193.473,35,32,13,11
193.473,25,22,0,-7
193.474,6,6,-11,-20
193.474,-6,0,-11,-21
193.475,-14,-3,-5,-14
193.475,-12,-3,0,-4
193.476,-8,-3,2,4
193.477,3,1,0,2
193.477,10,10,2,2
193.478,12,15,5,-2
193.478,2,10,8,-5
193.479,-14,-3,6,-2
193.48,-17,-8,6,0
193.48,-9,0,11,4
193.481,-3,7,16,7
193.481,2,12,19,9
193.482,3,11,14,7
193.482,3,5,4,0
193.483,0,2,-2,-6
193.483,-4,-1,-2,-4
193.484,-3,-1,-2,-1
193.485,1,0,-2,0
193.485,3,0,-6,-1
193.486,3,-2,-9,1
193.486,11,0,-7,1
193.487,10,0,-3,8
193.487,10,-2,-1,15
193.488,16,1,0,13
193.489,13,-2,-2,9
193.489,7,-3,0,12
193.49,10,1,3,14
193.49,15,8,9,13
193.491,13,9,9,9
193.492,8,7,5,2
193.492,0,3,3,-1
193.493,-1,3,5,0
193.493,0,7,8,1
193.494,0,7,9,3
193.494,0,3,4,-1
193.495,-3,-1,0,-3
193.496,-3,0,0,-1
193.496,0,3,3,0
193.497,1,6,6,0
193.497,0,4,5,0
193.498,-4,-2,0,-1
193.498,-4,-4,0,0
193.499,0,3,7,6
193.5,6,13,13,8
193.5,11,21,17,3
193.501,5,15,10,0
193.501,3,6,-1,-6
193.502,2,5,-6,-13
193.503,-5,3,-3,-11
193.503,-5,5,0,-6
193.504,2,8,0,-1
193.504,9,7,-6,-4
193.505,6,3,-8,-4
193.505,7,1,-10,-8
193.506,-1,-6,-12,-7
193.507,-7,-14,-12,-1
193.507,-2,-11,-6,6
193.508,4,-6,0,14
193.508,13,0,4,18
193.509,16,4,8,21
193.509,18,6,9,21
193.51,16,5,6,17
193.511,15,6,7,14
193.511,12,8,8,11
193.512,9,6,6,6
193.512,5,4,4,3
193.513,3,3,3,0
193.513,0,1,1,-2
193.514,-4,0,2,0
193.514,-2,0,3,0
193.515,-1,2,4,0
193.516,-3,0,4,-1
193.516,-5,1,5,0
193.517,-3,3,7,2
193.517,1,8,10,4
193.518,2,7,7,4
193.519,6,7,2,3
193.519,12,12,1,-2
193.52,11,15,1,-9
193.52,-1,11,5,-11
193.521,-12,3,5,-9
193.521,-17,-5,1,-3
193.522,-2,4,1,-2
193.523,6,13,2,-9
193.523,-6,2,1,-5
193.524,-8,-3,1,3
193.524,6,5,0,1
193.525,3,2,-1,-3
193.525,-5,-7,-3,0
193.526,-4,-11,-3,11
193.527,11,-3,-2,19
193.527,28,8,-3,8
193.528,13,0,-6,2
193.528,0,-7,-2,8
193.529,2,-4,6,18
193.529,15,5,9,23
193.53,26,10,2,13
193.531,20,10,1,1
193.531,2,0,3,3
193.532,-6,-7,3,8
193.532,1,0,5,7
193.533,6,4,3,4
193.534,8,9,4,7
193.534,19,20,8,0
193.535,4,9,2,-3
193.535,-1,0,-5,-8
193.536,-4,-2,-8,-15
193.536,-14,-5,-2,-7
193.537,-8,0,8,6
193.538,7,12,12,6
193.538,5,7,4,5
193.539,13,11,0,-1
193.539,9,12,0,-10
193.54,-6,3,3,-6
193.54,-7,7,11,-1
193.541,-6,4,8,0
193.542,-1,4,2,-5
193.542,0,7,4,-3
193.543,1,9,6,0
193.543,1,5,3,-2
193.544,-3,-3,-5,-6
193.544,-7,-8,-6,-4
193.545,-5,-4,-1,2
193.546,1,0,4,10
193.546,5,0,3,10
193.547,5,-6,-2,8
193.547,2,-12,-6,10
193.548,7,-6,0,17
193.548,15,0,3,20
193.549,18,3,6,19
193.55,17,4,4,15
193.55,13,3,3,10
193.551,9,3,5,10
193.551,7,3,5,7
193.552,5,3,5,4
193.552,0,1,4,4
193.553,0,0,3,3
193.554,3,4,4,1
193.554,-1,1,3,2
193.555,2,1,0,5
193.555,13,9,-1,5
193.556,24,18,-3,-4
193.556,14,11,-6,-11
193.557,0,1,-8,-11
193.558,-3,0,-5,-9
193.558,-5,0,-2,-7
193.559,-6,0,0,-5
193.559,-4,2,4,0
193.56,2,11,11,4
193.561,6,17,17,4
193.561,2,11,10,0
193.562,-1,6,6,-3
193.562,-2,6,5,-4
193.563,-3,3,2,-5
193.563,-7,-3,-4,-7
193.564,-9,-8,-5,-4
193.564,-5,-5,-2,0
193.565,0,0,3,7
193.566,5,1,4,9
193.566,5,-2,0,9
193.567,6,-4,0,10
193.567,7,-5,-1,10
193.568,9,-1,1,12
193.569,10,-1,1,13
193.569,12,1,2,14
193.57,15,5,5,14
193.57,15,6,5,12
193.571,15,10,6,10
193.571,13,8,3,7
193.572,10,6,0,1
193.573,5,3,-2,-3
193.573,0,0,-2,-2
193.574,0,1,0,-1
193.574,0,2,0,-2
193.575,-1,2,1,-2
193.575,0,5,5,0
193.576,2,6,5,1
193.577,2,7,4,-1
193.577,1,6,3,-3
193.578,-1,4,2,-3
193.578,-1,4,3,0
193.579,1,6,4,0
193.579,2,6,5,1
193.58,3,9,7,-1
193.581,0,9,8,-1
193.581,0,10,8,-1
193.582,1,11,8,-2
193.582,-2,6,3,-6
193.583,-7,-1,-3,-8
193.583,-7,-3,-3,-6
193.584,-5,-3,-2,-1
193.585,0,0,0,2
193.585,2,0,0,4
193.586,3,-3,-1,3
193.586,2,-5,-2,6
193.587,5,-4,-1,10
193.587,8,-3,0,13
193.588,11,0,2,16
193.589,15,1,2,16
193.589,16,2,2,14
193.59,17,7,4,13
193.59,14,6,4,10
193.591,9,5,5,7
193.591,6,2,1,3
193.592,3,0,0,0
193.593,1,3,4,1
193.593,0,2,5,2
193.594,-1,2,5,3
193.594,1,3,3,1
193.595,3,6,3,-1
193.596,-1,2,2,-2
193.596,-6,-3,1,1
193.597,0,0,0,9
193.597,25,22,3,0
193.598,11,13,0,-12
193.598,-12,-4,-1,-9
193.599,-16,-6,4,-4
193.599,-15,-6,7,1
193.6,-7,3,13,6
193.601,1,11,17,10
193.601,11,19,17,13
193.602,20,24,11,6
193.602,19,18,-3,-10
193.603,4,4,-15,-20
193.604,-5,-3,-16,-17
193.604,-7,-6,-12,-11
193.605,-4,-4,-9,-6
193.605,-2,-4,-6,-6
193.606,-9,-13,-5,0
193.606,-3,-9,0,11
193.607,8,-1,6,18
193.608,14,1,6,18
193.608,14,1,6,17
193.609,13,1,5,16
193.609,12,4,8,18
193.61,14,6,9,19
193.61,19,9,6,16
193.611,23,15,3,6
193.612,15,10,-1,-5
193.612,-1,-1,-3,-8
193.613,-12,-8,0,-3
193.613,-14,-10,0,0
193.614,-3,-1,3,5
193.614,7,9,8,5
193.615,8,13,13,6
193.616,6,11,10,3
193.616,0,1,1,2
193.617,7,4,-4,-2
193.617,10,10,-3,-9
193.618,0,6,0,-5
193.618,0,5,0,-4
193.619,-4,0,-2,-7
193.62,-6,-2,-3,-6
193.62,-2,5,5,0
193.621,4,13,12,5
193.621,9,17,13,3
193.622,7,13,7,-2
193.623,-1,1,-3,-9
193.623,-7,-4,-5,-7
193.624,-6,-4,-2,0
193.624,-1,-1,0,2
193.625,0,0,1,3
193.625,0,-1,0,3
193.626,1,-4,0,6
193.626,4,-2,1,11
193.627,8,-1,1,11
193.628,8,-2,0,10
193.628,8,-2,0,11
193.629,11,0,2,14
193.629,13,2,4,14
193.63,13,4,3,13
193.631,13,6,5,11
193.631,12,6,4,6
193.632,8,4,2,5
193.632,7,4,2,3
193.633,5,2,0,1
193.633,3,2,0,0
193.634,0,2,0,-1
193.635,0,2,2,0
193.635,0,3,2,0
193.636,1,3,2,0
193.636,0,3,1,-1
193.637,1,5,3,0
193.637,2,7,6,1
193.638,2,5,3,-1
193.639,-1,2,0,-3
193.639,-2,3,1,-2
193.64,1,8,6,0
193.64,3,14,11,0
193.641,1,10,8,-2
193.641,-5,1,0,-5
193.642,-5,1,2,-3
193.643,-5,1,3,-2
193.643,-4,2,5,0
193.644,0,3,3,2
193.644,3,4,2,4
193.645,10,7,0,0
193.645,2,0,-2,-1
193.646,0,-5,-5,0
193.647,1,-6,-4,4
193.647,4,-6,-5,6
193.648,7,-2,-1,11
193.648,13,0,1,13
193.649,15,5,3,13
193.65,15,6,5,11
193.65,11,3,3,8
193.651,9,6,6,8
193.651,8,6,6,7
193.652,6,4,4,4
193.652,2,1,2,1
193.653,0,0,1,1
193.654,0,0,1,2
193.654,2,5,5,3
193.655,4,9,7,3
193.655,3,8,5,0
193.656,0,5,3,-1
193.656,0,4,2,-1
193.657,0,5,3,-1
193.658,0,4,3,-2
193.658,0,2,0,-2
193.659,0,3,0,-2
193.659,1,4,1,-2
193.66,3,11,6,0
193.66,3,12,8,-1
193.661,0,8,5,-3
193.662,0,7,4,-4
193.662,0,8,4,-4
193.663,-1,3,0,-6
193.663,-4,0,0,-4
193.664,-4,-4,-4,-3
193.664,-2,-4,-3,1
193.665,1,-2,0,5
193.666,3,-1,0,7
193.666,6,-2,-1,7
193.667,3,-5,-1,8
193.667,2,-7,1,12
193.668,3,-7,3,15
193.669,6,-5,4,20
193.669,15,2,7,20
193.67,17,6,9,17
193.67,13,4,7,20
193.671,25,15,6,15
193.671,28,18,1,5
193.672,21,15,-4,-4
193.672,11,9,-6,-9
193.673,2,3,-9,-13
193.674,-4,-1,-9,-15
193.674,-10,-4,-7,-13
193.675,-12,-6,-3,-7
193.675,-7,-2,2,1
193.676,0,3,6,4
193.676,3,5,7,5
193.677,5,8,7,4
193.678,6,12,10,5
193.678,7,14,12,5
193.679,6,10,6,1
193.679,2,4,0,-5
193.68,-4,1,1,-4
193.68,-4,3,5,-2
193.681,-2,7,9,-1
193.682,0,8,9,0
193.682,-1,5,4,-3
193.683,-5,-1,-1,-5
193.683,-6,-4,-2,-3
193.684,-4,-4,-2,0
193.685,0,0,1,4
193.685,5,4,4,7
193.686,6,2,2,6
193.686,5,-3,-3,5
193.687,6,-5,-5,7
193.687,7,-5,-3,9
193.688,10,-1,-1,11
193.689,10,-1,0,12
193.689,12,0,0,13
193.69,13,1,1,13
193.69,13,3,3,11
193.691,12,6,5,9
193.691,11,10,8,8
193.692,9,9,6,5
193.693,8,8,4,0
193.693,2,4,0,-4
193.694,-4,0,0,-5
193.694,-6,-1,0,-4
193.695,-6,-1,1,0
193.695,2,5,4,4
193.696,11,14,6,0
193.697,2,5,2,-3
193.697,-3,-1,-1,-3
193.698,-2,0,0,-2
193.698,0,3,2,-1
193.699,0,4,4,0
193.699,1,7,7,1
193.7,4,15,13,2
193.701,2,12,11,0
193.701,0,8,5,-4
193.702,0,7,4,-6
193.702,-5,2,1,-6
193.703,-7,-2,0,-1
193.704,-3,-1,0,-1
193.704,-2,-3,-3,0
193.705,0,0,-2,1
193.705,4,2,1,6
193.706,7,3,2,6
193.706,6,-2,-1,6
193.707,4,-6,-6,5
193.707,5,-6,-4,7
193.708,9,-1,0,12
193.709,13,2,3,15
193.709,16,6,5,13
193.71,14,5,3,11
193.71,12,7,5,9
193.711,10,6,5,6
193.711,7,6,5,4
193.712,5,4,2,3
193.713,4,4,0,1
193.713,4,6,2,-2
193.714,-2,-1,-2,-3
193.714,-4,-5,-3,-1
193.715,0,-2,-2,0
193.716,3,5,3,2
193.716,6,12,9,5
193.717,10,13,8,3
193.717,7,12,7,-1
193.718,-3,1,0,-6
193.718,-9,-3,-1,-6
193.719,-9,-3,1,-2
193.719,-5,1,6,3
193.72,3,11,14,7
193.721,9,16,13,5
193.721,8,12,4,0
193.722,12,17,1,-3
193.722,10,14,-3,-13
193.723,-4,0,-7,-14
193.724,-9,-6,-8,-10
193.724,-9,-5,-6,-6
193.725,-6,-5,-3,0
193.725,0,-1,0,5
193.726,3,-2,0,7
193.726,5,-3,-1,9
193.727,4,-8,-2,9
193.728,5,-6,-1,12
193.728,10,-1,2,17
193.729,17,4,7,19
193.729,18,7,8,18
193.73,17,6,5,13
193.73,13,6,5,9
193.731,9,5,3,5
193.732,5,4,4,5
193.732,6,4,4,3
193.733,2,3,2,0
193.733,0,0,0,-3
193.734,-3,-1,0,-3
193.735,-2,0,2,0
193.735,0,3,3,1
193.736,1,5,5,1
193.736,1,4,4,0
193.737,0,3,4,0
193.737,-1,3,5,2
193.738,0,5,6,2
193.738,1,4,4,2
193.739,3,4,3,0
193.74,1,6,5,0
193.74,0,9,8,0
193.741,0,11,11,1
193.741,0,8,7,0
193.742,4,11,5,-3
193.743,0,6,-2,-10
193.743,-6,-1,-5,-6
193.744,0,1,-5,-4
193.744,5,4,-4,-5
193.745,0,0,-6,-4
193.745,0,-2,-4,0
193.746,1,-4,-4,3
193.747,4,-4,-4,6
193.747,7,-3,-3,9
193.748,9,0,0,11
193.748,11,0,1,14
193.749,13,2,4,15
193.749,14,5,6,14
193.75,12,4,6,11
193.751,10,5,7,9
193.751,8,3,4,7
193.752,6,1,1,6
193.752,6,3,1,5
193.753,7,6,2,2
193.753,6,7,3,1
193.754,3,5,2,-1
193.755,0,1,0,-3
193.755,-2,0,0,-3
193.756,-1,2,2,-1
193.756,-4,0,4,0
193.757,-3,1,6,3
193.757,0,5,8,3
193.758,1,5,6,3
193.759,2,8,7,1
193.759,2,8,7,0
193.76,2,10,9,0
193.76,0,8,7,-3
193.761,-3,4,2,-5
193.761,-5,0,0,-3
193.762,-1,2,0,-2
193.763,0,2,1,-2
193.763,-1,1,0,-1
193.764,-2,-2,-2,0
193.764,0,-1,0,2
193.765,6,3,0,4
193.766,7,4,0,5
193.766,7,0,-2,4
193.767,6,-3,-6,4
193.767,6,-3,-5,5
193.768,9,-2,-4,8
193.768,11,-1,-2,10
193.769,12,1,0,11
193.769,13,2,2,11
193.77,12,4,4,11
193.771,12,7,6,10
193.771,10,7,6,8
193.772,8,5,3,3
193.772,4,5,3,0
193.773,0,1,2,0
193.774,-2,0,2,-1
193.774,-2,1,3,0
193.775,0,3,5,3
193.775,2,6,6,2
193.776,3,7,5,2
193.776,2,5,3,0
193.777,3,5,0,0
193.778,8,10,1,-1
193.778,8,10,-1,-5
193.779,0,4,-1,-8
193.779,-4,2,0,-5
193.78,-2,7,6,-2
193.78,0,7,5,-3
193.781,-2,4,4,-3
193.782,-3,4,6,-1
193.782,-1,5,5,-2
193.783,-4,1,3,-1
193.783,0,2,1,1
193.784,6,5,0,0
193.784,5,5,0,0
193.785,3,1,-1,0
193.786,-1,-6,-6,0
193.786,0,-9,-7,3
193.787,1,-9,-5,9
193.787,7,-5,0,13
193.788,11,0,4,15
193.788,10,0,4,16
193.789,13,2,5,16
193.79,13,3,5,14
193.79,13,7,8,13
193.791,13,9,8,12
193.791,12,7,3,8
193.792,15,8,0,0
193.792,7,5,-1,-4
193.793,0,0,-2,-2
193.794,1,2,-1,-2
193.794,2,3,-1,-5
193.795,-4,0,-1,-5
193.795,-4,1,2,0
193.796,1,7,6,1
193.796,2,7,6,0
193.797,0,4,4,0
193.798,-1,2,2,-1
193.798,-2,2,4,0
193.799,0,3,4,0
193.799,0,5,6,0
193.8,0,9,12,3
193.801,1,11,12,2
193.801,0,8,8,0
193.802,0,8,8,-2
193.802,-3,2,1,-5
193.803,-6,-1,-1,-6
193.803,-5,-3,-2,-4
193.804,-6,-7,-5,0
193.805,-1,-6,-5,3
193.805,5,1,1,8
193.806,8,2,1,8
193.806,9,3,1,8
193.807,10,1,0,10
193.807,10,0,-2,10
193.808,11,0,-3,8
193.809,9,-1,-3,8
193.809,10,1,0,10
193.81,11,3,2,11
193.81,12,6,4,8
193.811,10,6,4,6
193.811,6,4,2,2
193.812,3,2,3,4
193.813,4,4,3,2
193.813,2,3,3,1
193.814,0,2,1,0
193.814,1,3,3,1
193.815,2,5,4,1
193.815,3,6,4,2
193.816,6,8,2,1
193.817,7,9,2,-2
193.817,0,5,1,-4
193.818,-4,0,0,-4
193.818,-4,0,0,-3
193.819,-2,1,0,-1
193.82,0,5,5,0
193.82,4,13,10,2
193.821,4,13,10,0
193.821,1,9,7,-2
193.822,-2,7,6,-4
193.822,-7,0,0,-8
193.823,-10,-4,0,-4
193.824,-7,-3,1,0
193.824,-2,-1,1,2
193.825,2,0,2,5
193.825,6,1,1,8
193.826,10,1,-1,8
193.826,13,2,-3,7
193.827,12,-1,-6,6
193.827,10,-3,-7,5
193.828,8,-4,-5,8
193.829,11,1,0,11
193.829,15,6,4,12
193.83,13,6,5,11
193.83,11,5,5,8
193.831,8,4,4,6
193.832,4,1,0,3
193.832,5,4,3,3
193.833,4,5,3,1
193.833,2,3,2,0
193.834,-1,1,1,0
193.834,-1,2,2,0
193.835,0,4,5,0
193.836,1,6,5,0
193.836,0,3,2,-1
193.837,0,4,3,0
193.837,1,4,3,0
193.838,0,3,2,0
193.838,1,4,2,0
193.839,2,6,4,1
193.84,4,8,6,1
193.84,4,11,8,0
193.841,2,9,5,-2
193.841,-1,6,3,-5
193.842,-2,7,5,-4
193.842,-5,0,1,-5
193.843,-6,-2,-1,-4
193.844,-5,-4,-3,-2
193.844,-2,-1,0,1
193.845,1,-1,0,4
193.845,4,1,1,7
193.846,6,0,0,8
193.847,7,-1,-1,8
193.847,6,-3,-2,9
193.848,8,-1,0,11
193.848,10,0,2,13
193.849,12,2,3,13
193.849,12,2,3,12
193.85,10,3,3,9
193.85,11,7,5,9
193.851,12,10,6,8
193.852,13,10,3,4
193.852,9,6,-1,-1
193.853,4,3,-3,-2
193.853,0,0,-3,-4
193.854,-1,0,-2,-4
193.855,-1,1,1,-1
193.855,0,3,3,0
193.856,1,5,5,1
193.856,1,5,5,0
193.857,-1,3,5,0
193.857,-2,2,5,0
193.858,-3,0,5,1
193.859,-3,0,6,3
193.859,-1,2,7,3
193.86,0,7,10,3
193.86,1,10,12,6
193.861,7,13,9,3
193.861,10,14,5,0
193.862,10,13,1,-6
193.863,0,3,-6,-10
193.863,-3,0,-8,-9
193.864,-4,-3,-9,-9
193.864,-4,-4,-7,-4
193.865,0,0,-3,0
193.865,2,0,0,1
193.866,0,-4,-2,4
193.867,2,-5,-1,9
193.867,6,-4,0,11
193.868,8,-1,2,15
193.868,14,2,4,16
193.869,14,5,6,15
193.869,14,4,4,11
193.87,13,5,5,10
193.871,10,7,6,6
193.871,6,5,5,5
193.872,2,1,3,3
193.872,0,0,1,3
193.873,0,-2,0,1
193.874,0,-1,1,3
193.874,3,2,3,4
193.875,6,8,6,5
193.875,7,9,5,3
193.876,6,8,4,0
193.876,3,6,1,-3
193.877,0,5,2,-3
193.877,-1,3,1,-4
193.878,-2,2,1,-4
193.879,-2,2,1,-3
193.879,-1,4,2,-3
193.88,-1,8,7,-1
193.88,0,8,7,0
193.881,-1,6,5,-1
193.881,0,7,6,0
193.882,0,5,3,-2
193.883,-1,2,1,-3
193.883,-2,1,0,-2
193.884,0,0,-1,-1
193.884,1,0,0,0
193.885,1,0,0,2
193.885,2,-1,-1,4
193.886,3,-3,-2,7
193.887,7,-3,-2,8
193.887,8,-2,-2,10
193.888,11,-1,-1,11
193.888,11,0,0,13
193.889,13,2,2,13
193.89,13,4,4,12
193.89,12,5,5,10
193.891,10,6,6,8
193.891,8,4,4,6
193.892,7,4,3,4
193.892,5,4,2,1
193.893,3,3,1,0
193.894,2,4,1,0
193.894,4,5,1,0
193.895,2,5,0,-4
193.895,-2,1,0,-4
193.896,-4,1,2,-1
193.896,-3,0,2,0
193.897,0,4,5,1
193.898,4,7,6,2
193.898,4,7,5,2
193.899,3,4,0,0
193.899,3,5,1,0
193.9,6,12,7,-2
193.9,2,12,7,-2
193.901,0,9,5,-4
193.902,-1,9,6,-4
193.902,-4,3,1,-8
193.903,-7,-1,-2,-6
193.903,-7,-4,-3,-3
193.904,-4,-4,-2,0
193.904,-1,-2,0,4
193.905,4,1,1,5
193.906,3,-2,0,6
193.906,4,-4,0,9
193.907,6,-3,0,11
193.907,10,0,1,13
193.908,12,1,3,13
193.909,12,3,3,13
193.909,13,4,4,12
193.91,14,5,2,12
193.91,18,7,0,6
193.911,11,5,0,2
193.911,4,1,0,0
193.912,2,0,1,0
193.913,1,2,2,1
193.913,2,3,2,0
193.914,1,4,4,1
193.914,1,3,4,2
193.915,2,4,2,0
193.915,0,3,1,-2
193.916,-2,2,3,0
193.917,-2,2,3,0
193.917,-1,3,4,1
193.918,2,5,3,2
193.918,7,10,5,0
193.919,5,8,2,-2
193.919,2,8,4,-1
193.92,2,11,7,-3
193.921,0,9,6,-4
193.921,-3,4,2,-4
193.922,-3,3,3,-4
193.922,-6,-1,0,-5
193.923,-6,-2,-1,-1
193.923,0,0,-1,-2
193.924,0,0,0,1
193.925,2,1,3,4
193.925,4,2,4,7
193.926,4,0,1,6
193.926,4,-3,-1,7
193.927,5,-4,-1,9
193.928,7,-3,0,11
193.928,9,-1,0,13
193.929,13,2,1,13
193.929,15,5,3,11
193.93,12,4,2,10
193.93,14,9,5,9
193.931,12,10,5,4
193.932,4,3,1,0
193.932,0,0,0,0
193.933,0,0,0,2
193.933,5,5,2,3
193.934,10,10,1,-1
193.934,3,5,1,-3
193.935,-2,0,-1,-3
193.936,-3,0,0,-3
193.936,-3,0,2,-1
193.937,-1,2,4,1
193.937,2,6,6,4
193.938,4,7,7,4
193.938,5,6,4,0
193.939,0,2,1,-1
193.94,1,6,6,1
193.94,5,13,10,2
193.941,5,13,9,0
193.941,1,8,3,-5
193.942,-2,4,1,-8
193.942,-7,0,-2,-8
193.943,-7,-2,-2,-4
193.943,-3,-1,0,-1
193.944,0,0,0,1
193.945,1,-1,0,2
193.945,2,0,0,4
193.946,3,-1,0,6
193.946,4,-5,-1,8
193.947,6,-6,-4,10
193.948,9,-3,0,12
193.948,11,-1,0,13
193.949,13,3,5,15
193.949,15,5,6,16
193.95,14,5,5,13
193.95,14,7,5,10
193.951,14,8,3,5
193.952,10,7,1,1
193.952,5,5,0,0
193.953,3,4,0,-2
193.953,0,2,-1,-3
193.954,-2,0,-1,-4
193.954,-1,1,0,-2
193.955,-1,3,3,0
193.956,0,5,4,0
193.956,1,6,5,0
193.957,0,5,5,0
193.957,0,5,4,0
193.958,1,6,4,0
193.958,-1,2,1,-1
193.959,-1,2,2,-1
193.96,0,7,6,0
193.96,1,11,10,0
193.961,1,10,9,0
193.961,0,7,6,-2
193.962,-2,5,5,-3
193.963,-5,0,0,-3
193.963,-5,-1,0,-2
193.964,-3,-3,-1,0
193.964,1,0,0,4
193.965,6,2,0,4
193.965,6,1,-2,5
193.966,11,2,-4,4
193.967,10,0,-5,2
193.967,5,-5,-6,4
193.968,5,-4,-3,6
193.968,4,-5,-2,9
193.969,8,-1,1,12
193.969,10,2,4,14
193.97,13,5,8,15
193.971,12,7,9,12
193.971,9,6,7,8
193.972,6,5,4,5
193.972,6,6,6,5
193.973,7,7,4,4
193.973,9,9,3,0
193.974,4,6,-1,-5
193.975,0,1,-3,-6
193.975,-3,0,-2,-4
193.976,-2,1,1,-2
193.976,0,3,1,-2
193.977,-1,3,2,-1
193.977,-1,3,3,0
193.978,-1,4,5,0
193.979,-1,2,4,0
193.979,-1,3,5,2
193.98,4,11,11,3
193.98,4,13,11,2
193.981,3,10,8,-1
193.981,0,8,6,-3
193.982,0,3,0,-6
193.983,-5,-1,-3,-6
193.983,-6,-7,-7,-5
193.984,-4,-8,-5,0
193.984,2,1,1,5
193.985,8,7,6,7
193.986,6,2,3,6
193.986,3,-3,-2,6
193.987,5,-6,-5,9
193.987,12,-2,-5,8
193.988,10,-1,-2,9
193.988,9,0,-1,11
193.989,12,3,2,13
193.99,13,3,3,12
193.99,14,6,4,10
193.991,11,5,4,7
193.991,8,4,3,5
193.992,5,4,4,4
193.992,3,2,2,1
193.993,2,2,1,0
193.993,0,1,2,0
193.994,-1,2,3,0
193.995,2,5,5,0
193.995,1,4,4,0
193.996,-1,2,2,-1
193.996,-1,2,2,-1
193.997,0,6,6,1
193.998,1,6,6,1
193.998,1,5,3,0
193.999,0,3,1,-1
193.999,0,3,1,0
194,5,11,8,2
194,7,15,8,0
194.001,3,8,3,-6
194.002,-3,4,0,-7
194.002,-5,1,-1,-7
194.003,-4,0,-1,-4
194.003,-1,0,-2,-2
194.004,-1,-2,-2,0
194.004,0,-1,0,2
194.005,3,1,1,4
194.006,3,0,0,7
194.006,5,-3,-1,8
194.007,6,-4,-1,10
194.007,8,-3,-2,9
194.008,8,-3,0,12
194.008,11,1,2,13
194.009,13,3,5,13
194.01,13,5,5,13
194.01,16,11,8,11
194.011,14,11,5,4
194.011,4,4,2,0
194.012,0,0,0,1
194.012,1,3,2,1
194.013,1,3,2,0
194.014,0,0,1,0
194.014,0,3,0,0
194.015,4,6,2,1
194.015,9,10,3,0
194.016,7,10,2,-4
194.016,0,4,-1,-5
194.017,-2,0,-3,-6
194.018,-4,-1,-2,-4
194.018,-2,0,1,0
194.019,0,4,4,1
194.019,3,9,8,3
194.02,5,13,12,2
194.02,2,11,10,0
194.021,-2,5,6,-1
194.022,-4,4,6,-3
194.022,-7,1,5,-3
194.023,-7,0,3,-1
194.023,-3,-2,0,0
194.024,0,0,0,2
194.024,3,0,0,2
194.025,4,0,0,3
194.026,1,-3,-1,5
194.026,2,-4,-1,8
194.027,4,-6,-3,8
194.027,8,-3,-1,12
194.028,11,0,1,13
194.029,13,1,2,15
194.029,15,3,3,14
194.03,13,2,1,11
194.03,13,6,4,10
194.031,11,7,6,6
194.031,8,6,5,4
194.032,4,4,3,1
194.033,2,3,1,0
194.033,0,2,0,0
194.034,6,7,1,1
194.034,9,12,1,-3
194.035,1,5,0,-7
194.035,-4,0,-2,-6
194.036,-6,-1,-1,-4
194.037,-4,0,1,-1
194.037,-1,1,2,2
194.038,3,5,3,3
194.038,6,6,4,2
194.039,6,7,4,0
194.039,4,10,7,0
194.04,2,12,10,0
194.041,0,10,8,-1
194.041,0,7,6,-3
194.042,-1,7,5,-4
194.042,-5,0,0,-6
194.043,-6,-2,-1,-3
194.043,-4,-2,-1,0
194.044,0,0,-1,1
194.045,0,0,0,2
194.045,1,-1,0,4
194.046,3,-3,-2,7
194.046,7,-2,0,11
194.047,11,0,0,11
194.048,13,2,0,11
194.048,12,0,0,11
194.049,13,2,2,11
194.049,14,5,3,11
194.05,12,6,3,8
194.05,9,4,3,6
194.051,7,3,3,4
194.051,4,3,2,2
194.052,2,3,3,2
194.053,2,3,3,1
194.053,0,2,2,0
194.054,0,1,1,0
194.054,0,0,1,0
194.055,0,0,0,1
194.055,1,2,3,3
194.056,3,4,4,1
194.057,2,6,5,2
194.057,4,6,4,4
194.058,7,10,4,2
194.058,8,10,3,-2
194.059,3,7,1,-4
194.06,1,9,4,-4
194.06,0,8,5,-6
194.061,-3,5,3,-7
194.061,-7,2,1,-7
194.062,-6,3,2,-4
194.062,-5,1,1,-3
194.063,-2,0,0,-1
194.064,-2,0,0,0
194.064,0,0,1,2
194.065,2,1,1,5
194.065,5,1,1,6
194.066,5,0,0,7
194.066,5,-2,0,7
194.067,5,-3,-1,8
194.068,7,-2,0,10
194.068,8,-4,-2,11
194.069,9,-3,-1,12
194.069,13,3,4,14
194.07,14,7,7,14
194.071,14,7,7,12
194.071,14,7,4,8
194.072,12,7,1,2
194.072,6,3,0,0
194.073,2,3,0,-2
194.073,0,1,0,-1
194.074,-1,1,1,-1
194.074,0,4,2,0
194.075,1,4,2,0
194.076,0,4,1,-1
194.076,0,2,1,-2
194.077,-1,1,2,0
194.077,0,3,4,1
194.078,1,5,5,0
194.079,2,6,4,0
194.079,2,7,5,0
194.08,4,12,10,2
194.08,4,12,8,-1
194.081,2,9,2,-4
194.081,2,9,1,-7
194.082,-1,4,-2,-9
194.083,-8,-1,-2,-8
194.083,-8,-4,-2,-5
194.084,-7,-6,-3,-1
194.084,-2,-2,0,4
194.085,4,1,3,8
194.085,6,1,3,9
194.086,7,0,0,9
194.087,8,-1,-1,10
194.087,10,0,-1,11
194.088,13,2,0,10
194.088,10,0,0,10
194.089,10,1,1,9
194.089,9,0,1,9
194.09,9,1,2,9
194.091,9,4,4,9
194.091,9,6,5,7
194.092,8,6,4,4
194.092,5,5,3,2
194.093,2,2,1,0
194.093,1,2,1,0
194.094,0,2,2,0
194.095,1,3,2,-1
194.095,0,1,1,-1
194.096,0,2,2,-1
194.096,-1,3,2,0
194.097,0,4,4,2
194.097,3,5,5,0
194.098,0,3,3,0
194.099,0,4,4,1
194.099,4,8,7,2
194.1,6,14,11,0
194.1,0,10,8,-3
194.101,-3,3,4,-4
194.102,-5,3,2,-5
194.102,-6,0,0,-7
194.103,-8,-3,0,-3
194.103,-4,0,0,0
194.104,0,1,1,2
194.104,4,2,1,3
194.105,5,1,0,4
194.106,6,0,-4,4
194.106,7,0,-3,7
194.107,10,0,-3,8
194.107,11,0,-3,7
194.108,9,-2,-3,8
194.108,9,-1,-1,10
194.109,12,2,0,12
194.109,14,5,2,11
194.11,15,9,6,9
194.111,12,8,4,6
194.111,7,5,3,2
194.112,4,4,3,1
194.112,1,3,3,0
194.113,0,1,1,0
194.114,-1,1,3,0
194.115,-2,0,3,0
194.115,-3,1,4,2
194.115,0,4,6,4
194.116,2,5,6,3
194.116,2,5,4,1
194.117,1,6,5,0
194.118,0,4,3,0
194.118,0,2,3,0
194.119,0,3,4,0
194.119,2,8,7,0
194.12,2,11,8,-1
194.12,0,8,7,-2
194.121,-3,5,3,-2
194.122,1,9,4,0
194.122,4,8,-1,-8
194.123,-1,2,-4,-9
194.123,-5,-2,-5,-7
194.124,-4,-3,-3,-2
194.124,0,-2,-2,0
194.125,2,-1,-1,2
194.126,2,-2,-1,5
194.126,5,0,0,9
194.127,7,-2,0,10
194.127,8,-1,0,9
194.128,6,-5,0,12
194.129,9,-2,1,16
194.129,15,4,5,18
194.13,20,6,3,14
194.13,17,7,3,9
194.131,9,3,1,6
194.131,8,3,0,6
194.132,10,6,2,6
194.133,12,11,3,1
194.133,6,8,1,-3
194.134,0,3,0,-5
194.134,-3,1,-1,-5
194.135,-3,0,0,-4
194.135,-4,-1,0,-4
194.136,-3,1,1,-1
194.137,0,4,4,0
194.137,2,7,7,1
194.138,1,7,7,0
194.138,-1,4,4,0
194.139,0,4,4,0
194.139,2,9,9,2
194.14,3,12,10,0
194.14,1,9,7,-1
194.141,-3,2,2,-4
194.142,-3,2,2,-3
194.142,-3,1,0,-3
194.143,-1,2,0,-1
194.143,-1,0,-1,-1
194.144,0,-1,-1,1
194.145,2,0,0,3
194.145,3,1,1,4
194.146,4,-1,0,6
194.146,5,-3,-3,6
194.147,6,-4,-3,8
194.147,9,0,0,10
194.148,11,0,0,11
194.149,12,3,3,12
194.149,14,5,4,11
194.15,12,4,2,9
194.15,9,5,4,7
194.151,8,6,5,5
194.151,5,4,3,3
194.152,3,3,2,2
194.153,1,0,0,0
194.153,1,0,0,1
194.154,2,3,1,1
194.154,5,7,6,1
194.155,4,6,4,0
194.156,0,6,3,0
194.156,0,3,2,-1
194.157,-1,2,2,-1
194.157,0,3,2,-1
194.158,0,3,3,0
194.158,0,4,3,0
194.159,0,4,3,0
194.16,2,9,8,1
194.16,4,11,8,0
194.161,2,10,7,-3
194.161,0,9,7,-3
194.162,-4,5,4,-4
194.162,-7,0,1,-5
194.163,-7,-4,-3,-3
194.164,-4,-4,-2,0
194.164,1,0,0,4
194.165,7,3,0,5
194.165,7,1,-2,3
194.166,3,-3,-5,3
194.166,5,-4,-4,7
194.167,9,-1,-1,10
194.168,12,2,0,11
194.168,12,1,0,11
194.169,12,2,0,11
194.169,12,3,1,11
194.17,13,6,4,10
194.17,13,8,6,9
194.171,9,6,4,4
194.172,5,2,0,0
194.172,1,2,1,2
194.173,1,1,2,0
194.173,0,3,3,0
194.174,-1,1,2,0
194.174,0,2,3,1
194.175,1,5,4,2
194.176,3,7,5,1
194.176,4,7,4,0
194.177,2,5,2,-1
194.177,0,4,0,-3
194.178,0,3,0,-2
194.178,0,2,0,-2
194.179,0,4,3,-1
194.18,3,12,10,0
194.18,0,8,8,-1
194.181,-4,2,4,-2
194.181,-3,3,5,-1
194.182,-1,4,4,-2
194.182,-2,2,2,-1
194.183,-2,0,1,0
194.184,0,1,0,1
194.184,2,0,-1,1
194.185,2,-1,-2,1
194.185,2,-4,-3,4
194.186,4,-4,-1,8
194.186,6,-3,-1,11
194.187,10,0,0,11
194.188,14,2,0,9
194.188,9,0,0,10
194.189,11,1,2,13
194.189,13,4,3,11
194.19,13,7,4,8
194.19,11,8,3,5
194.191,7,5,3,4
194.192,5,5,3,2
194.192,4,4,3,1
194.193,1,2,0,-2
194.193,0,1,0,-2
194.194,-1,1,1,0
194.195,0,3,2,0
194.195,1,3,2,0
194.196,0,3,3,0
194.196,0,5,4,0
194.197,1,7,6,1
194.197,2,6,5,1
194.198,1,5,4,0
194.199,0,3,2,-1
194.199,0,6,4,-1
194.2,2,11,9,0
194.2,2,12,9,-1
194.201,0,8,5,-4
194.201,-2,7,4,-7
194.202,-8,0,0,-8
194.203,-10,-5,-3,-5
194.203,-7,-6,-3,-2
194.204,-5,-7,-2,2
194.204,0,-3,0,7
194.205,6,0,3,11
194.205,13,5,3,14
194.206,20,10,2,10
194.207,14,2,-3,5
194.207,5,-4,-6,3
194.208,3,-6,-4,6
194.208,6,-2,0,9
194.209,8,0,2,11
194.209,10,2,3,12
194.21,12,7,6,10
194.211,11,7,7,8
194.211,8,5,4,6
194.212,8,7,2,4
194.212,10,9,2,0
194.213,4,5,2,-1
194.213,-1,0,0,-4
194.214,-5,-2,0,-4
194.215,-4,-1,0,-2
194.215,-1,1,2,0
194.216,1,4,3,0
194.216,1,5,5,2
194.217,2,6,5,2
194.217,3,6,3,2
194.218,7,9,4,1
194.219,7,9,3,-1
194.219,4,9,5,-2
194.22,0,8,5,-3
194.22,-3,4,2,-4
194.221,-3,3,2,-4
194.221,-2,5,5,-3
194.222,-3,3,3,-3
194.223,-3,1,1,-2
194.223,-3,-1,-1,-2
194.224,-2,-1,0,0
194.224,0,0,0,4
194.225,3,0,1,6
194.225,5,-1,0,8
194.226,7,-2,-3,7
194.227,8,-3,-3,7
194.227,9,-1,-1,9
194.228,10,0,0,11
194.228,11,1,3,12
194.229,12,3,3,12
194.23,12,3,3,10
194.23,11,6,6,10
194.231,10,6,6,7
194.231,6,4,4,4
194.232,3,3,3,1
194.232,0,0,2,0
194.233,0,2,3,1
194.234,2,3,4,1
194.234,1,4,3,2
194.235,2,4,2,0
194.235,1,4,1,0
194.236,3,5,1,0
194.236,5,7,1,0
194.237,8,9,0,-2
194.238,4,6,0,-7
194.238,-2,1,-1,-6
194.239,-4,1,0,-4
194.239,-1,6,6,-2
194.24,0,10,9,0
194.24,0,10,9,0
194.241,-1,7,6,-1
194.242,-1,5,4,-2
194.242,-3,0,0,-5
194.243,-5,-2,-1,-2
194.243,-3,-2,0,1
194.244,1,0,1,4
194.244,4,1,2,5
194.245,3,0,1,5
194.246,2,-5,-2,5
194.246,4,-3,0,9
194.247,7,-1,0,11
194.247,11,0,2,12
194.248,9,-3,-2,10
194.248,12,0,0,12
194.249,14,6,4,13
194.25,15,8,6,10
194.25,13,9,6,9
194.251,10,7,3,4
194.251,5,2,0,1
194.252,1,1,0,-1
194.252,0,0,0,0
194.253,0,0,0,0
194.254,1,2,0,0
194.254,1,3,1,0
194.255,0,3,3,0
194.255,0,3,4,0
194.256,0,3,5,2
194.257,2,6,5,1
194.257,2,5,4,1
194.258,2,5,3,0
194.258,1,5,2,-1
194.259,0,4,4,0
194.259,3,10,8,2
194.26,7,15,9,0
194.261,3,12,5,-6
194.261,-3,6,2,-8
194.262,-7,0,-1,-8
194.262,-9,-4,-3,-7
194.263,-9,-6,-3,-3
194.263,-5,-4,-1,2
194.264,2,2,2,5
194.265,7,5,4,7
194.265,6,2,2,7
194.266,5,0,0,7
194.266,7,0,-1,8
194.267,9,-1,-2,9
194.268,12,-1,-4,10
194.268,15,1,-2,9
194.269,14,2,0,8
194.269,11,3,1,9
194.27,9,3,2,8
194.27,10,5,3,6
194.271,7,4,4,5
194.272,5,3,2,3
194.272,2,3,5,3
194.273,0,3,4,1
194.273,-1,2,4,1
194.274,-2,0,4,1
194.274,0,3,5,3
194.275,1,6,6,3
194.275,5,7,5,5
194.276,11,12,3,1
194.277,10,10,-1,-5
194.277,0,1,-4,-7
194.278,-3,-2,-5,-6
194.278,-3,-1,-2,-5
194.279,-2,2,1,-1
194.279,1,10,10,1
194.28,2,11,12,3
194.281,1,8,9,0
194.281,0,8,7,-2
194.282,-3,3,3,-4
194.282,-4,0,2,-2
194.283,-2,0,0,-1
194.283,0,0,0,0
194.284,0,-1,0,1
194.285,1,-1,-1,3
194.285,3,-3,-2,5
194.286,4,-2,-1,8
194.286,8,-1,-1,9
194.287,9,-2,-1,9
194.288,10,-1,-1,10
194.288,9,-2,-1,12
194.289,13,2,3,14
194.289,15,4,3,12
194.29,14,7,5,10
194.29,11,6,5,7
194.291,7,6,3,4
194.292,5,5,3,4
194.292,5,3,1,0
194.293,1,2,0,0
194.293,0,2,0,-1
194.294,0,3,2,0
194.294,0,3,2,0
194.295,1,2,1,-1
194.296,0,4,2,-2
194.296,-2,2,2,-1
194.297,0,3,4,0
194.297,0,3,5,1
194.298,0,4,4,1
194.299,0,2,3,0
194.299,2,6,6,1
194.3,4,11,10,3
194.3,4,12,9,3
194.301,7,11,4,-1
194.301,5,11,2,-7
194.302,-2,3,-2,-9
194.303,-7,-2,-4,-8
194.303,-8,-5,-5,-6
194.304,-5,-3,-2,0
194.304,0,0,0,2
194.305,4,2,2,6
194.305,6,0,0,7
194.306,7,0,0,7
194.306,6,-3,-2,8
194.307,7,-2,-2,9
194.308,10,0,0,11
194.308,12,2,2,12
194.309,13,3,3,11
194.309,11,3,3,10
194.31,11,6,5,9
194.31,10,8,7,6
194.311,6,3,1,3
194.312,3,0,0,2
194.312,3,1,0,1
194.313,2,1,1,0
194.313,0,1,3,1
194.314,0,1,3,2
194.315,0,4,6,3
194.315,2,4,5,2
194.316,0,3,4,0
194.316,-1,1,3,0
194.317,0,3,4,2
194.317,3,6,4,1
194.318,3,7,4,0
194.319,1,5,2,-1
194.319,2,8,5,0
194.32,3,12,7,-1
194.32,2,10,4,-4
194.321,-1,6,1,-6
194.321,-2,5,1,-6
194.322,-5,0,-1,-6
194.323,-4,0,-1,-5
194.323,-4,-1,-1,-1
194.324,0,0,0,1
194.324,2,0,0,3
194.325,4,0,1,6
194.326,4,-1,-1,5
194.326,5,-2,-1,7
194.327,6,-2,-1,8
194.327,7,-1,0,12
194.328,10,0,0,13
194.328,12,1,2,12
194.329,12,2,2,13
194.329,13,4,3,11
194.33,13,8,5,10
194.331,12,7,3,7
194.331,10,7,1,3
194.332,8,7,1,0
194.332,3,4,1,-2
194.333,-2,0,0,-4
194.334,-4,0,0,-2
194.334,-2,0,2,0
194.335,-1,0,1,0
194.335,1,2,1,1
194.336,5,7,6,4
194.336,6,9,6,2
194.337,2,5,3,0
194.338,0,1,1,-2
194.338,-1,1,1,-1
194.339,-1,1,2,0
194.339,0,6,6,1
194.34,2,10,11,2
194.34,1,10,9,0
194.341,1,8,6,-1
194.342,1,7,2,-4
194.342,0,3,-2,-6
194.343,-2,1,-1,-5
194.343,-3,0,-2,-4
194.344,-2,0,-2,-1
194.344,-1,-1,-1,0
194.345,0,-2,-2,2
194.346,3,-1,-2,5
194.346,7,-1,-2,8
194.347,9,0,-1,9
194.347,10,1,1,12
194.348,13,1,0,10
194.348,12,2,2,11
194.349,11,3,4,11
194.35,9,2,5,11
194.35,9,5,6,8
194.351,8,5,5,6
194.351,5,2,3,4
194.352,4,3,3,3
194.352,4,3,2,1
194.353,3,5,3,0
194.354,0,5,3,0
194.354,0,3,1,-1
194.355,0,3,0,-2
194.355,0,2,0,0
194.356,0,3,2,0
194.356,1,3,3,0
194.357,1,4,3,0
194.358,1,6,6,2
194.358,1,6,5,2
194.359,1,4,3,0
194.359,1,8,6,0
194.36,2,9,7,-1
194.36,0,7,4,-3
194.361,0,6,4,-4
194.362,-2,4,2,-6
194.362,-5,0,-1,-5
194.363,-6,-3,-2,-4
194.363,-4,-3,-1,0
194.364,-1,-2,0,3
194.364,3,0,1,6
194.365,4,0,0,7
194.366,6,0,0,9
194.366,8,-1,-1,9
194.367,9,-2,-1,12
194.367,13,1,0,12
194.368,16,2,-1,9
194.369,12,3,0,9
194.369,11,2,1,9
194.37,11,4,3,8
194.37,10,5,3,6
194.371,5,3,2,4
194.371,4,2,2,3
194.372,4,4,3,2
194.373,4,4,2,1
194.373,2,2,1,0
194.374,0,3,1,0
194.374,2,6,4,0
194.375,2,6,3,0
194.375,1,5,3,-1
194.376,0,2,0,-2
194.377,0,3,1,-1
194.377,0,3,2,-1
194.378,-1,3,3,0
194.378,0,2,2,0
194.379,0,5,5,1
194.38,4,10,10,3
194.38,4,12,9,0
194.381,0,8,5,-2
194.381,-1,7,5,-3
194.382,-3,3,0,-5
194.382,-4,1,0,-5
194.383,-3,0,-1,-4
194.384,-2,-1,0,0
194.384,0,0,-1,1
194.385,2,0,0,3
194.385,4,-1,-1,4
194.386,3,-2,-2,6
194.386,5,-4,-3,7
194.387,6,-5,-2,9
194.388,6,-5,0,11
194.388,7,-3,2,14
194.389,10,1,7,16
194.389,11,2,8,17
194.39,14,6,8,17
194.39,18,10,7,13
194.391,19,12,4,8
194.392,18,14,2,3
194.392,15,14,0,-5
194.393,1,3,-5,-12
194.393,-8,-4,-7,-11
194.394,-8,-5,-5,-8
194.394,-4,-1,-2,-5
194.395,-1,4,2,-1
194.396,0,5,5,1
194.396,0,3,5,3
194.397,1,3,5,3
194.397,2,4,5,3
194.398,3,6,6,1
194.398,2,6,5,2
194.399,4,9,8,2
194.4,4,12,9,0
194.4,0,8,6,-3
194.401,-3,3,2,-4
194.401,-3,5,4,-3
194.402,-4,2,2,-4
194.402,-4,0,0,-4
194.403,-8,-6,-3,-1
194.404,-3,-4,0,4
194.404,3,0,0,6
194.405,7,2,2,8
194.405,7,0,0,7
194.406,8,0,-1,8
194.406,8,-2,-2,8
194.407,9,0,-1,10
194.408,10,0,0,9
194.408,10,1,0,9
194.409,10,3,2,10
194.409,10,2,1,8
194.41,10,5,4,8
194.41,10,6,4,6
194.411,8,6,4,5
194.412,7,5,2,2
194.412,5,5,2,1
194.413,4,5,1,-1
194.413,2,3,0,-2
194.414,1,2,0,-2
194.414,0,2,1,-2
194.415,-2,1,2,-1
194.416,0,3,3,0
194.416,-1,4,5,0
194.417,0,4,6,0
194.417,0,4,5,1
194.418,0,3,4,1
194.419,1,3,2,2
194.419,7,11,7,3
194.42,10,17,9,0
194.42,3,11,6,-4
194.421,-2,4,2,-6
194.421,-5,2,1,-6
194.422,-6,0,-1,-6
194.422,-5,-2,-1,-4
194.423,-4,-2,-1,0
194.424,0,0,0,3
194.424,4,1,0,4
194.425,6,2,0,7
194.425,9,0,-2,5
194.426,7,-1,-3,5
194.427,6,-4,-3,6
194.427,6,-4,-2,8
194.428,7,-3,-1,10
194.428,10,1,3,14
194.429,13,4,6,14
194.429,13,6,6,12
194.43,12,7,6,9
194.431,7,5,5,5
194.431,3,1,2,5
194.432,5,1,0,5
194.432,8,5,1,3
194.433,7,7,3,0
194.433,2,5,2,-2
194.434,-1,2,1,-1
194.435,0,4,2,-1
194.435,0,4,3,-2
194.436,-2,1,1,-3
194.436,-3,0,0,-3
194.437,-2,3,4,1
194.437,1,5,4,2
194.438,3,6,5,1
194.439,3,7,4,0
194.439,3,8,6,1
194.44,3,10,8,0
194.44,3,10,7,-1
194.441,0,9,6,-3
194.441,-1,5,2,-5
194.442,-5,0,0,-7
194.443,-7,-2,-2,-4
194.443,-5,-2,-2,-1
194.444,-1,-1,0,0
194.444,2,0,0,4
194.445,3,0,0,5
194.445,6,-1,-1,6
194.446,6,-3,-3,7
194.447,5,-4,-2,9
194.447,8,-1,0,12
194.448,11,0,0,13
194.448,13,2,2,13
194.449,15,5,4,12
194.449,12,5,4,9
194.45,9,5,4,7
194.451,7,4,4,6
194.451,6,4,4,4
194.452,5,4,4,3
194.452,3,2,2,0
194.453,0,2,1,0
194.454,0,2,2,0
194.454,0,4,4,0
194.455,-1,3,4,0
194.455,0,3,4,-1
194.456,-2,1,2,-1
194.456,-1,2,3,1
194.457,3,4,3,1
194.458,4,4,1,1
194.458,5,6,1,1
194.459,6,8,2,0
194.459,7,13,6,0
194.46,5,13,6,-2
194.461,0,8,3,-6
194.461,-1,6,2,-6
194.462,-5,1,0,-7
194.462,-8,-2,-1,-6
194.463,-8,-5,-2,-3
194.463,-5,-5,-2,1
194.464,0,-1,0,3
194.464,2,1,4,8
194.465,6,2,4,9
194.466,8,1,1,9
194.466,9,-1,0,10
194.467,11,0,-1,10
194.467,12,2,0,10
194.468,10,0,-1,8
194.469,9,-2,-2,9
194.469,11,0,0,9
194.47,13,6,3,9
194.47,13,8,5,7
194.471,9,7,4,5
194.471,5,3,2,2
194.472,1,2,2,0
194.473,0,0,2,0
194.473,-1,1,3,0
194.474,0,2,4,1
194.474,0,2,4,1
194.475,0,4,5,2
194.475,2,5,4,3
194.476,6,8,3,1
194.477,6,9,4,0
194.477,4,6,1,-3
194.478,1,4,0,-4
194.478,0,3,-1,-6
194.479,-2,3,0,-5
194.479,-1,8,7,-1
194.48,0,8,8,-1
194.48,-3,4,5,-2
194.482,-3,4,5,-1
194.482,-3,1,2,1
194.482,4,6,2,3
194.483,11,11,1,0
194.483,5,4,-2,-4
194.484,-2,-3,-4,-2
194.485,-2,-4,-4,0
194.485,-1,-6,-6,2
194.486,4,-4,-3,7
194.486,8,-1,-2,8
194.487,8,-2,0,10
194.487,9,-1,0,12
194.488,10,0,2,12
194.489,11,2,4,13
194.489,12,4,5,13
194.49,14,9,8,13
194.49,11,8,6,7
194.491,6,3,1,2
194.491,2,2,1,1
194.492,3,3,2,2
194.493,2,3,2,1
194.493,1,3,2,0
194.494,0,2,1,0
194.494,0,3,2,0
194.495,0,4,2,0
194.495,1,5,4,0
194.496,1,5,4,0
194.497,0,4,3,-1
194.497,0,3,2,-1
194.498,0,3,3,0
194.498,0,4,3,0
194.499,0,6,5,0
194.499,1,9,8,0
194.5,0,8,7,0
194.501,0,5,5,-1
194.501,-1,6,5,-2
194.502,-2,1,1,-4
194.502,-3,0,0,-4
194.503,-2,0,-1,-1
194.503,-1,0,0,1
194.504,1,0,1,4
194.505,5,1,0,5
194.505,4,-2,-3,4
194.506,4,-4,-4,6
194.506,6,-3,-2,9
194.507,10,0,0,11
194.507,11,0,0,11
194.508,12,1,1,11
194.509,12,3,3,12
194.509,13,4,3,10
194.51,13,7,5,9
194.511,10,5,3,4
194.511,5,3,0,2
194.512,5,4,2,2
194.512,5,6,3,1
194.513,4,5,1,0
194.513,3,4,1,-2
194.514,0,3,1,-1
194.514,-1,2,1,-3
194.515,-4,-1,0,-1
194.516,-3,-1,0,0
194.516,-1,0,4,3
194.517,2,6,8,5
194.517,3,8,8,4
194.518,4,6,6,2
194.518,3,6,4,1
194.519,4,9,6,0
194.52,5,12,8,0
194.52,2,10,5,-2
194.521,0,7,3,-5
194.521,-3,5,1,-7
194.522,-6,0,-1,-8
194.523,-7,-2,-2,-5
194.523,-6,-4,-3,-2
194.524,-1,-1,0,1
194.524,2,1,1,4
194.525,4,1,1,5
194.525,4,-1,0,6
194.526,6,-1,-1,9
194.527,9,-1,-2,9
194.527,10,-2,-2,11
194.528,11,0,-2,11
194.528,13,2,1,12
194.529,14,5,4,13
194.529,13,5,4,10
194.53,10,5,3,7
194.53,7,4,3,5
194.531,5,3,2,5
194.532,5,5,4,3
194.532,2,1,1,1
194.533,2,0,-1,1
194.533,3,3,0,0
194.534,4,6,4,1
194.535,3,7,4,1
194.535,1,4,2,-2
194.536,0,5,3,-1
194.536,0,3,2,-1
194.537,0,4,2,-1
194.537,0,3,2,-2
194.538,0,4,2,-1
194.538,1,5,4,0
194.539,3,9,7,0
194.54,2,9,7,-1
194.54,0,7,5,-4
194.541,-3,5,5,-3
194.541,-4,3,4,-3
194.542,-5,0,1,-3
194.543,-5,-1,0,-1
194.543,-2,-2,0,0
194.544,1,0,0,3
194.544,4,0,1,5
194.545,7,1,0,6
194.545,9,3,0,7
194.546,11,2,-3,6
194.547,8,-3,-6,5
194.547,7,-4,-6,7
194.548,8,-2,-3,9
194.548,9,-1,0,11
194.549,11,3,3,12
194.549,13,7,6,12
194.55,12,8,7,9
194.551,8,6,5,6
194.551,4,3,3,3
194.552,2,2,3,3
194.552,2,3,3,3
194.553,3,5,4,2
194.554,3,4,2,0
194.554,1,2,0,-1
194.555,0,2,1,-1
194.555,0,3,2,0
194.556,1,4,3,-1
194.556,1,7,5,-1
194.557,1,6,4,-1
194.558,-1,3,1,-3
194.558,-1,2,2,-2
194.559,0,6,3,0
194.559,3,11,9,1
194.56,3,11,10,0
194.56,0,7,5,-2
194.561,-1,6,4,-3
194.561,-2,2,0,-5
194.562,-6,0,-1,-4
194.563,-5,-2,-2,-2
194.563,-1,-2,-1,0
194.564,1,0,0,2
194.564,4,2,1,4
194.565,5,0,0,5
194.565,4,-2,-2,6
194.566,5,-2,-1,8
194.567,7,-2,-1,10
194.567,10,-1,0,12
194.568,11,-1,0,11
194.568,12,2,2,13
194.569,12,3,4,12
194.57,10,5,5,10
194.57,9,5,5,8
194.571,8,4,4,7
194.571,8,6,3,6
194.572,11,9,3,2
194.572,8,7,0,-2
194.573,1,3,0,-3
194.574,0,1,-1,-4
194.574,-2,0,-1,-4
194.575,-1,1,0,-2
194.575,0,1,0,-1
194.576,0,3,2,0
194.576,1,5,5,1
194.577,1,5,4,1
194.578,2,6,4,0
194.578,1,4,4,0
194.579,1,6,5,0
194.579,1,10,9,0
194.58,0,10,9,0
194.58,-1,6,5,-2
194.581,-1,8,7,-3
194.582,-2,3,2,-5
194.582,-4,0,-1,-5
194.583,-4,-3,-2,-3
194.583,-2,-2,-2,0
194.584,0,0,0,2
194.585,2,0,0,4
194.585,3,-2,0,6
194.586,4,-4,-1,8
194.586,5,-4,-2,10
194.587,10,0,0,13
194.587,12,0,2,14
194.588,13,3,3,14
194.588,15,4,3,13
194.589,14,4,1,10
194.59,15,7,2,7
194.59,11,7,2,4
194.591,6,3,0,1
194.591,4,3,0,0
194.592,2,2,1,0
194.593,0,1,0,0
194.593,0,0,0,-1
194.594,0,3,2,0
194.594,2,5,5,2
194.595,5,8,6,0
194.595,3,7,4,-2
194.596,-1,3,3,-1
194.597,-1,4,4,0
194.597,0,4,3,0
194.598,1,5,2,0
194.598,1,4,2,-2
194.599,0,5,3,-1
194.599,2,9,7,0
194.6,2,11,7,-1
194.601,0,7,4,-3
194.601,0,9,6,-1
194.602,0,6,2,-4
194.602,0,4,0,-5
194.603,-4,-4,-7,-5
194.603,-4,-5,-5,-2
194.604,-1,-3,-3,0
194.605,0,-2,0,4
194.605,1,-4,0,7
194.606,5,-1,1,12
194.606,10,0,0,11
194.607,11,1,1,12
194.607,12,0,1,12
194.608,12,1,2,13
194.609,13,4,4,12
194.609,12,4,2,10
194.61,10,4,3,7
194.61,8,5,5,6
194.611,5,4,3,4
194.611,3,2,2,2
194.612,1,1,3,1
194.613,0,1,2,0
194.613,1,2,3,1
194.614,2,4,4,1
194.614,3,6,5,1
194.615,1,5,4,0
194.615,0,5,3,-1
194.616,0,5,3,-2
194.617,-1,3,1,-2
194.617,-2,0,-1,-3
194.618,-1,0,1,-1
194.618,0,4,4,0
194.619,3,9,9,1
194.62,2,12,10,0
194.62,0,9,9,0
194.621,0,6,5,-2
194.621,0,6,4,-1
194.622,0,4,0,-2
194.622,3,5,-1,-4
194.623,0,0,-4,-4
194.623,-1,-2,-5,-5
194.624,-3,-4,-5,-1
194.625,0,-3,-2,2
194.625,2,-4,-2,7
194.626,5,-2,0,9
194.626,8,-2,-1,11
194.627,11,0,1,13
194.628,12,0,1,13
194.628,13,2,2,13
194.629,17,5,3,13
194.629,16,7,3,10
194.63,14,8,3,6
194.63,9,6,2,3
194.631,6,4,1,1
194.632,3,4,3,1
194.632,2,3,3,0
194.633,0,2,1,-1
194.633,-2,0,0,-2
194.634,-3,1,1,-2
194.634,-2,1,3,0
194.635,0,3,4,2
194.636,1,4,4,2
194.636,2,5,5,1
194.637,2,5,3,0
194.637,2,5,3,0
194.638,1,5,3,0
194.638,1,6,4,0
194.639,1,8,7,0
194.64,1,9,8,-2
194.64,-1,6,6,-3
194.641,-3,4,4,-2
194.641,-3,4,4,-2
194.642,-5,0,1,-4
194.643,-4,-1,0,-1
194.643,-2,0,1,1
194.644,3,4,3,4
194.644,6,4,2,3
194.645,4,1,0,2
194.645,3,-3,-3,3
194.646,4,-4,-5,5
194.647,4,-7,-7,7
194.647,7,-7,-7,10
194.648,12,-1,-2,12
194.648,15,4,3,14
194.649,16,6,4,13
194.649,15,7,5,11
194.65,13,8,6,9
194.651,10,7,4,4
194.651,5,4,3,2
194.652,2,3,3,1
194.652,0,2,2,0
194.653,0,1,1,0
194.654,-1,0,1,0
194.654,0,3,3,0
194.655,1,3,2,0
194.655,2,4,3,0
194.656,1,4,2,0
194.656,0,3,2,0
194.657,2,4,3,1
194.657,3,4,2,1
194.658,5,8,3,1
194.659,6,11,4,-1
194.659,4,12,8,-2
194.66,0,10,6,-4
194.66,-3,5,2,-7
194.661,-5,5,3,-7
194.662,-6,1,0,-6
194.662,-5,0,0,-4
194.663,-3,0,0,-2
194.663,-1,-1,0,0
194.664,0,0,0,2
194.664,1,0,1,5
194.665,3,-3,0,6
194.665,5,-4,-2,7
194.666,7,-4,-2,10
194.667,10,-1,0,12
194.667,11,0,0,13
194.668,13,2,2,14
194.668,17,5,4,14
194.669,16,6,4,11
194.67,13,7,4,8
194.67,9,5,3,5
194.671,5,3,2,2
194.671,2,2,2,1
194.672,0,2,1,0
194.672,-1,0,0,-1
194.673,0,2,3,0
194.674,1,4,4,1
194.674,2,5,4,1
194.675,1,5,3,0
194.675,0,3,1,0
194.676,1,4,2,0
194.676,3,5,3,0
194.677,2,5,2,0
194.678,2,4,0,-1
194.678,0,4,2,0
194.679,1,7,4,0
194.679,2,10,8,-1
194.68,1,10,8,-1
194.68,-1,6,5,-2
194.681,-2,5,5,-2
194.681,-3,2,1,-3
194.682,-3,0,0,-3
194.683,-2,0,0,-1
194.683,-1,-1,-1,0
194.684,1,0,0,1
194.684,2,0,1,4
194.685,2,-3,-1,4
194.686,1,-6,-3,6
194.686,4,-5,-1,9
194.687,6,-2,1,12
194.687,9,0,3,12
194.688,10,2,5,15
194.688,13,6,6,15
194.689,14,4,4,11
194.69,12,4,2,9
194.69,10,5,3,8
194.691,11,7,2,5
194.691,10,8,1,1
194.692,7,8,2,0
194.692,4,4,0,-2
194.693,3,1,-5,-4
194.694,1,2,-5,-6
194.694,0,1,-2,-4
194.695,0,2,0,-1
194.695,1,5,2,0
194.696,1,4,3,0
194.697,2,5,3,0
194.697,1,5,5,0
194.698,0,3,5,0
194.698,-1,2,5,0
194.699,0,6,7,1
194.699,1,9,9,1
194.7,1,11,10,0
194.7,1,9,8,-1
194.701,0,8,6,-1
194.702,-1,3,1,-5
194.702,-4,0,-2,-5
194.703,-4,-2,-4,-4
194.703,-2,-2,-1,0
194.704,0,-1,0,1
194.704,1,-1,1,4
194.705,1,-4,-1,5
194.706,3,-3,0,8
194.706,7,-2,0,11
194.707,11,0,1,13
194.707,11,0,0,11
194.708,11,1,2,12
194.708,12,2,2,12
194.709,12,3,2,12
194.71,15,9,4,9
194.71,11,6,3,6
194.711,7,3,0,3
194.711,4,3,1,3
194.712,4,5,3,1
194.713,3,4,1,-1
194.713,1,4,1,-1
194.714,0,4,2,-1
194.714,0,2,2,-2
194.715,-2,0,1,-2
194.715,-2,0,1,-1
194.716,-2,2,3,0
194.717,0,3,4,1
194.717,0,1,3,2
194.718,1,2,2,2
194.718,2,5,5,2
194.719,5,11,11,4
194.719,4,12,12,1
194.72,1,9,9,0
194.721,0,8,6,-1
194.721,0,8,3,-6
194.722,-4,1,-1,-9
194.722,-8,-2,-2,-6
194.723,-5,-4,-4,-2
194.723,-1,-2,-2,0
194.724,3,1,-1,3
194.725,8,4,0,5
194.725,8,1,-2,5
194.726,6,-2,-4,5
194.726,8,-2,-4,5
194.727,9,-1,-3,7
194.727,10,0,0,10
194.728,11,3,3,13
194.729,13,5,4,11
194.729,11,3,4,10
194.73,10,5,3,7
194.73,6,3,3,5
194.731,5,4,4,6
194.731,7,6,5,5
194.732,4,3,2,2
194.733,2,2,1,0
194.733,0,1,1,0
194.734,0,2,2,1
194.734,2,4,3,1
194.735,1,4,3,0
194.735,0,3,3,0
194.736,0,4,3,0
194.737,0,5,4,0
194.737,0,4,3,-1
194.738,-1,3,2,-1
194.738,0,4,3,-1
194.739,1,8,7,0
194.74,2,11,9,0
194.74,0,7,6,-1
194.741,0,7,5,-3
194.741,-3,3,1,-4
194.742,-5,0,-1,-5
194.742,-2,0,0,-1
194.743,-1,0,-1,-1
194.744,1,0,0,1
194.744,2,0,0,3
194.745,3,-1,-1,4
194.745,4,-3,-2,7
194.746,6,-2,0,10
194.746,9,-2,-1,11
194.747,10,-1,0,11
194.748,11,-1,0,12
194.748,12,1,1,13
194.749,13,3,2,12
194.749,15,6,5,11
194.75,13,9,6,8
194.75,9,7,4,5
194.751,5,3,2,2
194.752,5,4,1,0
194.752,3,7,3,-1
194.753,2,8,4,-2
194.753,0,8,6,-2
194.754,-4,1,0,-5
194.755,-6,-4,-4,-4
194.755,-3,-1,-1,-2
194.756,0,2,1,0
194.756,2,5,5,2
194.757,4,7,6,2
194.757,3,6,6,1
194.758,1,4,3,0
194.759,0,2,2,0
194.759,2,8,7,1
194.76,2,9,9,1
194.76,2,7,6,0
194.761,1,7,4,-2
194.761,-1,3,1,-4
194.762,-3,0,0,-4
194.762,-3,0,0,-2
194.763,0,0,-1,0
194.764,1,0,0,1
194.764,2,0,0,2
194.765,0,-3,-2,2
194.765,1,-5,-2,6
194.766,3,-5,-2,8
194.767,3,-6,0,11
194.767,4,-5,2,14
194.768,9,0,4,17
194.768,15,3,7,20
194.769,23,10,6,18
194.769,26,16,6,11
194.77,18,13,3,4
194.771,10,6,-1,0
194.771,6,3,-4,-4
194.772,3,3,-4,-6
194.772,-1,0,-4,-6
194.773,-2,1,-1,-3
194.773,-1,2,2,-1
