Program Time [s],data 0,data 1,data 2,data 3
177.444,17,10,2,5
177.445,8,4,0,0
177.446,0,0,-2,-1
177.446,0,0,0,0
177.447,0,1,1,0
177.447,1,1,2,1
177.448,3,4,2,1
177.448,2,5,3,0
177.449,2,4,2,0
177.449,2,5,3,-1
177.45,0,5,2,-2
177.451,-1,3,2,-3
177.451,-3,1,2,-1
177.452,-1,1,2,0
177.452,-1,2,3,0
177.453,-1,4,7,2
177.454,3,11,12,5
177.454,5,12,11,2
177.455,3,9,7,0
177.455,2,11,6,-3
177.456,0,6,2,-4
177.456,0,5,0,-4
177.457,1,4,-3,-8
177.458,-4,-4,-7,-8
177.458,-6,-5,-6,-4
177.459,-3,-4,-2,0
177.459,0,-4,0,5
177.46,3,-3,-1,8
177.46,6,-3,0,11
177.461,10,0,2,13
177.462,10,-1,1,13
177.462,11,0,2,15
177.463,13,2,5,14
177.463,14,6,6,14
177.464,15,9,8,13
177.464,13,6,3,7
177.465,8,3,0,4
177.466,7,4,0,4
177.466,10,8,0,1
177.467,7,6,0,-2
177.467,2,3,-1,-3
177.468,0,0,-2,-4
177.469,-1,1,0,-2
177.469,-1,1,0,-2
177.47,0,3,3,0
177.47,0,4,4,1
177.471,1,6,5,1
177.471,1,5,4,0
177.472,1,6,4,0
177.472,0,7,6,0
177.473,0,8,7,0
177.474,1,11,10,0
177.474,0,9,8,-2
177.475,-2,5,4,-4
177.475,-3,4,3,-4
177.476,-4,1,0,-4
177.476,-5,-1,-1,-4
177.477,-2,-1,-1,-2
177.478,0,0,0,0
177.478,2,0,0,3
177.479,4,1,1,5
177.479,4,-1,0,7
177.48,5,-2,-2,7
177.481,6,-2,-1,7
177.481,7,-2,0,9
177.482,7,-2,0,11
177.482,11,0,1,12
177.483,13,3,3,13
177.483,12,2,3,10
177.484,10,4,4,9
177.485,9,6,6,8
177.485,8,5,5,8
177.486,9,7,3,3
177.486,7,6,2,0
177.487,3,4,1,0
177.487,0,1,0,-2
177.488,0,1,0,-2
177.489,-1,0,0,-2
177.489,0,1,0,-1
177.49,0,2,2,0
177.49,1,5,4,1
177.491,1,5,4,0
177.491,0,4,4,0
177.492,0,3,2,0
177.493,0,3,4,0
177.493,1,7,9,1
177.494,2,11,11,0
177.494,0,9,9,0
177.495,-1,7,6,-2
177.495,-3,5,4,-4
177.496,-3,2,0,-4
177.497,0,2,-1,-1
177.497,6,5,-4,-3
177.498,5,3,-6,-5
177.498,0,-1,-5,-3
177.499,0,-2,-3,0
177.499,0,-4,-4,1
177.5,1,-5,-3,5
177.501,3,-4,0,10
177.501,11,2,3,15
177.502,15,3,1,12
177.502,13,2,1,11
177.503,12,3,3,13
177.503,13,4,4,11
177.504,13,8,5,9
177.505,9,4,3,5
177.505,3,1,1,3
177.506,0,0,2,3
177.506,2,1,3,3
177.507,2,3,4,4
177.507,3,3,3,5
177.508,8,8,3,2
177.509,9,9,2,-1
177.509,2,4,1,-3
177.51,-2,3,1,-4
177.51,-4,2,1,-4
177.511,-5,0,2,-2
177.511,-3,1,1,0
177.512,0,3,3,1
177.513,3,7,4,1
177.513,5,12,7,1
177.514,4,12,8,-1
177.514,1,10,7,-3
177.515,-2,7,6,-3
177.516,-5,3,2,-5
177.516,-8,-1,0,-5
177.517,-7,-3,-1,-2
177.517,-3,-1,0,1
177.518,1,0,1,4
177.518,4,2,1,4
177.519,5,1,0,4
177.52,4,-2,-1,5
177.52,5,-3,-3,8
177.521,8,-2,-2,9
177.521,10,-1,-1,10
177.522,9,-2,-2,10
177.522,11,0,0,11
177.523,12,2,3,13
177.524,14,7,6,13
177.524,14,9,6,9
177.525,10,7,4,6
177.525,7,5,2,2
177.526,3,3,1,1
177.526,2,2,0,0
177.527,1,3,1,0
177.528,1,3,1,-1
177.528,0,2,0,-1
177.529,-1,0,0,0
177.529,0,-1,-2,0
177.53,4,5,4,2
177.53,6,12,8,2
177.531,4,9,6,0
177.532,2,7,4,-3
177.532,-3,1,2,-4
177.533,-7,-2,0,-2
177.533,0,8,9,0
177.534,0,9,10,1
177.535,-1,4,7,0
177.535,0,8,8,0
177.536,0,5,3,-2
177.536,-3,0,0,-4
177.537,-2,0,-2,-1
177.537,1,2,0,1
177.538,5,5,1,0
177.538,3,2,0,0
177.539,0,-2,-4,0
177.54,0,-5,-4,4
177.54,3,-4,-4,5
177.541,5,-6,-6,7
177.541,9,-3,-3,11
177.542,13,2,0,14
177.543,16,6,4,16
177.543,19,6,3,13
177.544,16,7,3,9
177.544,12,6,3,6
177.545,7,4,2,3
177.545,3,1,2,3
177.546,3,2,3,3
177.546,1,2,3,2
177.547,1,2,3,1
177.548,0,2,2,0
177.548,-1,2,3,0
177.549,0,3,4,1
177.549,0,4,4,1
177.55,0,4,4,0
177.551,-1,3,4,0
177.551,0,3,3,0
177.552,0,3,4,0
177.552,0,3,4,1
177.553,0,5,5,1
177.553,6,13,9,0
177.554,3,12,9,-1
177.555,0,7,5,-3
177.555,-1,7,4,-3
177.556,0,6,0,-7
177.556,-2,2,-3,-8
177.557,-3,0,-3,-6
177.557,-2,-1,-2,-2
177.558,1,0,-2,0
177.559,4,2,0,1
177.559,3,-2,-4,1
177.56,2,-3,-3,4
177.56,4,-4,-2,7
177.561,7,-3,-2,11
177.562,11,0,0,12
177.562,13,2,2,13
177.563,14,4,3,14
177.563,13,4,5,13
177.564,11,4,5,11
177.564,11,6,5,8
177.565,11,8,4,6
177.566,8,7,5,4
177.566,6,6,3,1
177.567,2,3,0,-2
177.567,-1,0,-2,-3
177.568,-2,0,0,-2
177.568,0,2,2,0
177.569,1,5,3,0
177.57,1,4,3,0
177.57,0,4,2,0
177.571,1,6,4,0
177.571,0,4,3,0
177.572,-1,3,4,-1
177.572,-5,0,3,0
177.573,-3,3,8,1
177.574,0,9,13,3
177.574,1,10,13,3
177.575,1,9,8,2
177.575,6,13,7,0
177.576,7,12,0,-7
177.576,0,5,-3,-9
177.577,-2,-1,-8,-10
177.578,-5,-3,-8,-8
177.578,-6,-4,-5,-4
177.579,-3,-2,-2,0
177.579,-1,-6,-4,4
177.58,4,-4,-1,10
177.58,8,-2,0,11
177.581,11,0,2,14
177.582,12,1,1,14
177.582,13,2,4,15
177.583,14,2,4,14
177.583,13,3,4,13
177.584,12,5,4,9
177.584,8,4,4,7
177.585,6,2,4,7
177.586,5,4,5,6
177.586,4,3,4,3
177.587,2,1,0,1
177.587,1,2,1,1
177.588,1,2,0,1
177.589,2,2,0,0
177.589,1,2,0,0
177.59,0,3,2,0
177.59,1,5,4,0
177.591,1,5,3,0
177.591,1,3,2,0
177.592,1,6,4,0
177.592,1,6,5,-1
177.593,0,9,8,0
177.594,0,10,9,0
177.594,0,9,6,-3
177.595,-3,5,4,-5
177.595,-3,5,3,-5
177.596,-5,1,-1,-6
177.597,-6,0,-1,-5
177.597,-4,-1,-1,-1
177.598,0,0,-1,1
177.598,3,1,0,3
177.599,4,2,0,4
177.599,5,0,0,6
177.6,8,0,-2,9
177.601,13,1,-4,8
177.601,13,0,-4,6
177.602,10,-2,-4,7
177.602,9,-1,-1,9
177.603,10,0,1,10
177.603,9,1,3,10
177.604,9,4,6,11
177.605,9,4,6,9
177.605,7,3,4,6
177.606,5,3,5,6
177.606,6,5,4,4
177.607,4,5,3,2
177.608,2,4,4,2
177.608,3,5,2,0
177.609,0,3,0,-3
177.609,-3,0,0,-2
177.61,-2,0,0,-1
177.61,0,4,3,0
177.611,0,5,4,0
177.611,1,5,4,0
177.612,1,5,4,0
177.613,0,6,4,0
177.613,2,10,8,0
177.614,3,10,7,0
177.614,3,10,4,-4
177.615,0,6,2,-6
177.615,-4,3,1,-6
177.616,-4,1,0,-4
177.617,-3,0,0,-3
177.617,-1,0,-1,-2
177.618,0,0,0,0
177.618,3,1,0,2
177.619,5,1,0,3
177.62,4,-1,-2,4
177.62,4,-3,-3,5
177.621,4,-4,-2,8
177.621,6,-3,0,11
177.622,7,-3,1,13
177.622,11,0,3,15
177.623,14,4,7,16
177.624,15,7,8,14
177.624,14,9,8,10
177.625,8,5,6,7
177.625,5,3,3,4
177.626,3,1,1,2
177.626,3,3,1,1
177.627,5,6,1,1
177.628,4,4,0,-1
177.628,0,3,0,-2
177.629,0,1,-1,-2
177.629,0,3,0,-2
177.63,1,6,3,0
177.63,1,5,4,-1
177.631,0,4,3,0
177.632,0,2,1,-1
177.632,0,2,2,-1
177.633,0,4,4,0
177.633,3,10,10,1
177.634,3,12,10,0
177.634,1,8,7,-2
177.635,0,8,6,-3
177.636,0,5,3,-4
177.636,-2,2,0,-6
177.637,-4,-1,-2,-6
177.637,-5,-3,-2,-3
177.638,-3,-1,-1,0
177.638,0,-1,0,2
177.639,0,-3,0,5
177.64,2,-4,0,9
177.64,6,-2,0,13
177.641,14,0,0,13
177.641,19,4,-1,10
177.642,14,2,0,10
177.642,13,1,1,13
177.643,14,3,1,11
177.644,13,6,2,8
177.644,11,6,3,5
177.645,6,3,1,3
177.645,2,-2,-1,3
177.646,3,1,1,3
177.646,2,3,5,2
177.647,0,1,4,1
177.648,-1,0,5,2
177.648,0,2,5,3
177.649,2,3,6,5
177.649,5,6,3,4
177.65,10,10,1,-1
177.651,5,6,0,-4
177.651,0,3,0,-3
177.652,0,2,0,-3
177.652,-1,0,-2,-5
177.653,-1,3,1,-1
177.653,3,12,10,1
177.654,4,14,12,1
177.655,1,9,7,-2
177.655,-2,6,4,-6
177.656,-5,3,1,-6
177.656,-5,1,1,-3
177.657,-3,1,1,-2
177.657,-1,1,1,-1
177.658,-2,-1,-1,-2
177.659,-1,-2,0,0
177.659,0,-3,0,5
177.66,2,-3,0,8
177.66,5,-5,-2,9
177.661,7,-4,-2,12
177.661,12,-1,0,13
177.662,15,3,2,15
177.663,17,6,4,15
177.663,17,7,5,13
177.664,18,10,5,7
177.664,10,6,1,2
177.665,2,0,1,1
177.665,0,0,3,1
177.666,0,0,3,1
177.667,-1,0,2,1
177.667,0,0,2,2
177.668,2,2,3,4
177.668,6,5,3,6
177.669,14,13,4,2
177.669,9,9,0,-4
177.67,1,5,0,-4
177.671,-1,3,0,-5
177.671,-3,0,-1,-5
177.672,-4,1,0,-3
177.672,-1,3,2,-1
177.673,1,8,7,1
177.674,4,12,9,2
177.674,2,10,7,0
177.675,0,7,4,-4
177.675,-2,7,5,-4
177.676,-4,4,3,-3
177.676,-4,2,2,-3
177.677,-4,0,0,-3
177.678,-5,-2,0,-2
177.678,-3,-3,-1,2
177.679,0,-2,0,5
177.679,3,-3,-2,8
177.68,8,-3,-3,8
177.68,10,-1,-3,9
177.681,12,0,0,11
177.682,11,0,1,11
177.682,9,0,1,12
177.683,10,0,2,12
177.683,11,2,3,11
177.684,12,8,8,11
177.684,12,9,8,9
177.685,9,7,4,5
177.686,6,4,0,2
177.686,5,1,-2,0
177.687,2,0,-3,-1
177.687,2,1,0,0
177.688,3,6,4,0
177.688,1,3,2,0
177.689,0,2,1,-2
177.69,-2,1,2,0
177.69,0,4,3,1
177.691,3,5,3,0
177.691,2,6,3,0
177.692,1,6,4,-1
177.692,0,8,7,0
177.693,1,10,9,0
177.694,-1,7,6,-3
177.694,-3,5,5,-4
177.695,-4,3,3,-4
177.695,-3,5,4,-3
177.696,-3,2,1,-3
177.696,-3,0,-1,-3
177.697,-3,-1,-2,-1
177.698,0,0,0,2
177.698,3,1,1,4
177.699,4,1,1,5
177.699,5,0,-1,5
177.7,4,-1,-2,7
177.7,6,-2,-1,8
177.701,8,-1,0,10
177.702,10,-1,-1,11
177.702,11,0,0,11
177.703,11,1,2,12
177.703,12,3,3,12
177.704,14,7,4,10
177.704,13,7,3,7
177.705,10,6,1,2
177.706,7,5,1,1
177.706,4,4,1,-1
177.707,0,2,0,-2
177.707,-2,0,0,-2
177.708,-3,1,2,0
177.709,0,2,3,1
177.709,0,3,5,2
177.71,1,5,5,1
177.71,0,3,4,1
177.711,0,2,4,1
177.711,0,2,3,1
177.712,0,1,2,2
177.713,5,7,5,3
177.713,9,14,10,4
177.714,12,18,8,0
177.714,10,18,6,-6
177.715,0,12,3,-11
177.715,-6,7,1,-14
177.716,-14,-1,-2,-14
177.717,-16,-10,-8,-9
177.717,-9,-8,-6,-3
177.718,-3,-4,-2,1
177.718,2,-1,0,6
177.719,6,0,1,8
177.719,5,-2,1,11
177.72,8,-3,-1,12
177.721,9,-7,-4,13
177.721,13,-1,0,14
177.722,15,3,4,15
177.722,15,5,6,16
177.723,16,6,5,15
177.723,14,6,5,11
177.724,11,5,3,7
177.725,6,2,1,4
177.725,6,3,1,2
177.726,5,5,2,1
177.726,3,5,2,0
177.727,0,1,0,-3
177.727,-2,0,0,-3
177.728,-2,1,1,0
177.729,0,2,2,0
177.729,2,4,4,0
177.73,0,2,3,0
177.73,-1,3,2,0
177.731,0,3,4,1
177.732,0,4,5,1
177.732,2,5,5,2
177.733,4,8,6,1
177.733,4,12,10,1
177.734,1,10,7,0
177.734,0,7,4,-5
177.735,-3,5,4,-5
177.736,-6,0,0,-6
177.736,-8,-2,-1,-5
177.737,-4,0,0,1
177.737,6,6,1,5
177.738,15,12,0,0
177.738,6,4,-4,-4
177.739,-1,-6,-8,-3
177.74,-3,-9,-8,0
177.74,1,-6,-4,5
177.741,5,-4,-2,10
177.741,10,0,1,13
177.742,13,2,3,15
177.742,14,4,4,15
177.743,14,4,4,13
177.743,14,6,5,11
177.744,14,9,6,11
177.745,12,9,6,6
177.745,7,5,1,1
177.746,1,1,0,-2
177.746,-1,0,-1,-2
177.747,-2,0,0,0
177.747,0,3,3,1
177.748,0,2,4,0
177.749,0,2,2,0
177.749,-1,1,3,0
177.75,0,2,4,2
177.75,2,5,6,4
177.751,4,6,4,1
177.752,2,3,2,0
177.752,1,3,1,-2
177.753,1,7,5,0
177.753,4,11,9,0
177.754,2,11,8,-2
177.754,-2,5,4,-5
177.755,-4,5,4,-4
177.756,-6,3,4,-4
177.756,-7,0,4,-3
177.757,-6,-1,2,-1
177.757,-6,-5,-1,-1
177.758,-2,-3,0,4
177.758,5,2,2,8
177.759,8,1,0,8
177.76,9,0,-1,8
177.76,10,-1,-3,7
177.761,10,-1,-4,7
177.761,10,-1,-4,8
177.762,12,1,0,10
177.763,13,3,0,10
177.763,11,2,0,8
177.764,10,3,2,8
177.764,8,3,4,7
177.765,8,4,3,6
177.765,7,5,5,7
177.766,7,7,5,4
177.767,6,6,4,1
177.767,0,1,0,-1
177.768,0,1,0,0
177.768,0,2,3,0
177.769,2,5,4,0
177.769,2,6,4,0
177.77,1,4,2,-2
177.771,-1,2,0,-2
177.771,-2,0,0,0
177.772,0,0,0,0
177.772,1,0,-1,0
177.773,3,6,5,1
177.773,6,15,13,3
177.774,3,13,12,1
177.775,0,8,6,-1
177.775,0,8,5,-3
177.776,-1,5,1,-6
177.776,-5,1,-1,-8
177.777,-8,-4,-3,-6
177.777,-5,-3,-2,-1
177.778,0,0,0,2
177.779,4,1,0,4
177.779,3,-2,-2,4
177.78,4,-2,-2,7
177.78,7,-2,-2,9
177.781,10,0,0,12
177.781,11,1,0,11
177.782,12,3,2,12
177.783,14,3,2,11
177.783,13,3,2,10
177.784,13,6,3,9
177.784,10,5,3,6
177.785,6,3,1,3
177.785,5,5,3,2
177.786,4,4,3,1
177.787,1,3,2,0
177.787,0,2,2,0
177.788,-2,0,2,0
177.788,-1,2,3,1
177.789,0,5,6,2
177.789,1,4,5,0
177.79,0,4,4,0
177.791,1,4,4,0
177.791,0,3,2,0
177.792,2,3,2,0
177.792,2,5,2,-1
177.793,2,9,6,0
177.793,2,11,8,0
177.794,0,9,7,-2
177.795,-2,5,4,-2
177.795,-2,5,3,-4
177.796,-5,0,0,-5
177.796,-7,-3,0,-5
177.797,-8,-4,0,0
177.797,-2,-1,3,3
177.798,2,1,2,5
177.799,4,1,1,6
177.799,7,0,-1,10
177.8,16,4,-2,9
177.8,18,4,-5,4
177.801,9,-2,-8,1
177.801,5,-6,-7,4
177.802,6,-2,-2,9
177.803,8,0,0,11
177.803,11,3,4,13
177.804,14,8,7,13
177.804,16,10,7,8
177.805,10,8,4,4
177.806,3,3,2,2
177.806,1,1,1,2
177.807,4,5,2,0
177.807,3,4,1,0
177.808,2,4,1,0
177.808,1,3,0,-1
177.809,0,1,0,-2
177.81,-1,1,1,0
177.81,0,5,4,0
177.811,0,6,6,0
177.811,0,3,4,0
177.812,0,3,3,0
177.812,0,5,4,0
177.813,2,10,8,0
177.814,2,12,10,-1
177.814,0,9,7,-2
177.815,-2,7,6,-4
177.815,-3,4,2,-6
177.816,-6,1,0,-5
177.817,-5,0,0,-3
177.817,-3,-2,-1,-2
177.818,-1,-1,-1,0
177.818,0,0,0,3
177.819,1,-2,-2,6
177.819,5,-2,-2,7
177.82,8,-1,-2,9
177.821,10,0,0,11
177.821,12,0,1,11
177.822,10,-1,0,10
177.822,10,0,1,12
177.823,12,1,3,11
177.823,10,3,5,11
177.824,9,5,6,9
177.825,7,4,5,8
177.825,7,4,3,7
177.826,8,5,1,4
177.826,8,6,2,2
177.827,5,5,0,-1
177.827,2,2,0,-2
177.828,1,2,0,-3
177.829,0,3,1,-2
177.829,-1,2,1,-2
177.83,-3,2,2,-1
177.83,-1,3,5,1
177.831,2,5,5,0
177.831,1,4,4,0
177.832,0,2,3,0
177.833,1,5,5,1
177.833,4,13,11,0
177.834,1,11,9,-1
177.834,-1,7,6,-3
177.835,-3,3,3,-3
177.835,-4,0,-1,-4
177.836,-3,1,0,-3
177.837,-2,1,1,-1
177.837,-2,0,0,0
177.838,0,1,1,2
177.838,2,2,2,3
177.839,2,0,0,2
177.839,1,-3,-2,4
177.84,3,-4,-3,7
177.841,6,-4,-4,10
177.841,11,-2,-2,11
177.842,12,0,-1,12
177.842,13,1,1,14
177.843,15,3,2,13
177.844,15,7,6,12
177.844,14,9,7,9
177.845,10,7,5,5
177.845,7,6,2,2
177.846,3,3,1,1
177.846,2,2,0,-1
177.847,0,1,0,-2
177.848,-2,0,0,0
177.848,0,1,2,0
177.849,0,4,5,1
177.849,0,3,3,1
177.85,0,2,3,2
177.85,2,3,3,1
177.851,2,4,3,0
177.851,1,5,6,2
177.852,2,7,6,1
177.853,1,6,4,0
177.853,1,9,8,0
177.854,1,10,7,-1
177.854,0,6,3,-4
177.855,0,8,4,-2
177.855,3,8,0,-6
177.856,0,4,-2,-8
177.857,-5,-1,-4,-7
177.857,-5,-3,-4,-4
177.858,-3,-3,-2,0
177.858,-1,-2,0,3
177.859,0,-3,0,5
177.86,5,-1,0,10
177.86,13,3,2,12
177.861,15,3,0,8
177.861,9,-1,-1,8
177.862,6,-2,0,10
177.862,8,0,3,13
177.863,12,3,4,12
177.864,14,9,7,11
177.864,14,10,6,9
177.865,11,8,4,4
177.865,7,3,0,0
177.866,2,0,-2,-2
177.866,0,0,0,-2
177.867,-1,3,3,0
177.868,-1,1,4,0
177.868,-1,0,2,1
177.869,-2,-2,0,2
177.869,0,-1,1,2
177.87,2,2,4,5
177.87,7,7,5,6
177.871,11,11,6,4
177.872,8,9,3,0
177.872,4,8,2,-1
177.873,4,11,5,-2
177.873,4,13,6,-4
177.874,-1,10,5,-7
177.874,-5,4,2,-9
177.875,-9,1,1,-9
177.876,-12,-4,0,-7
177.876,-10,-3,0,-4
177.877,-7,-3,1,1
177.877,0,0,3,6
177.878,5,3,3,7
177.878,8,3,1,8
177.879,12,4,-1,7
177.88,13,3,-4,4
177.88,9,-1,-6,4
177.881,7,-3,-5,5
177.881,8,-2,-4,6
177.882,8,0,0,8
177.882,10,2,3,11
177.883,11,3,4,11
177.884,10,6,7,11
177.884,8,5,5,8
177.885,7,4,4,4
177.885,2,2,5,5
177.886,2,3,6,4
177.886,1,2,5,3
177.887,1,4,5,3
177.888,2,4,3,0
177.888,1,4,3,0
177.889,1,4,4,0
177.889,2,4,2,0
177.89,2,2,0,-3
177.891,0,0,-1,-4
177.891,0,1,0,0
177.892,1,5,2,0
177.892,2,5,3,0
177.893,3,9,7,0
177.893,3,11,8,0
177.894,1,10,8,0
177.895,1,9,5,-3
177.895,-1,8,5,-5
177.896,-4,2,0,-8
177.896,-6,1,0,-5
177.897,-4,0,0,-2
177.897,-3,-3,-3,-1
177.898,-2,-5,-4,1
177.899,1,-3,-2,4
177.899,4,-3,-1,7
177.9,7,-2,-1,9
177.9,10,0,0,12
177.901,11,0,0,13
177.901,14,0,0,13
177.902,15,4,2,14
177.903,15,4,2,11
177.903,14,5,3,10
177.904,13,7,4,8
177.904,9,4,2,5
177.905,6,4,1,2
177.905,4,2,0,1
177.906,1,1,0,0
177.907,1,1,1,0
177.907,1,3,2,1
177.908,2,6,4,0
177.908,0,6,5,0
177.909,0,4,4,0
177.91,-1,1,2,0
177.91,0,2,2,0
177.911,1,4,2,-1
177.911,0,3,2,0
177.912,2,5,3,0
177.912,3,7,4,0
177.913,5,12,8,0
177.914,3,12,8,-1
177.914,0,10,6,-4
177.915,-1,8,4,-5
177.915,-3,4,2,-6
177.916,-6,1,0,-6
177.916,-7,-1,-2,-5
177.917,-5,-2,-1,-2
177.918,-3,-3,0,1
177.918,0,-1,1,4
177.919,2,-1,1,7
177.919,5,-1,0,8
177.92,7,-2,-1,8
177.92,7,-3,-1,11
177.921,10,-1,0,12
177.922,10,-1,1,13
177.922,12,1,3,13
177.923,13,3,3,14
177.923,14,5,5,12
177.924,14,8,6,10
177.924,11,7,4,6
177.925,7,5,3,3
177.926,3,2,0,0
177.926,2,2,0,0
177.927,1,1,0,0
177.927,2,3,0,-1
177.928,2,4,0,-1
177.928,2,4,1,0
177.929,1,4,0,-1
177.93,0,4,1,-2
177.93,0,4,2,-1
177.931,0,4,3,0
177.931,1,4,3,0
177.932,1,6,4,0
177.932,2,8,6,0
177.933,3,12,9,0
177.934,0,10,8,-2
177.934,-2,6,6,-3
177.935,-2,6,5,-3
177.935,-3,3,2,-5
177.936,-5,0,0,-5
177.937,-7,-2,-1,-3
177.937,-4,-3,0,0
177.938,-1,-2,0,2
177.938,1,0,1,5
177.939,5,0,0,8
177.939,9,0,-1,10
177.94,13,0,-3,10
177.941,16,1,-5,7
177.941,13,0,-5,6
177.942,11,0,-4,7
177.942,11,2,0,10
177.943,12,3,2,10
177.943,12,5,4,8
177.944,9,6,5,7
177.945,6,4,5,6
177.945,5,3,3,3
177.946,2,2,3,2
177.946,0,2,4,2
177.947,0,2,4,2
177.947,0,2,3,1
177.948,0,2,3,1
177.949,0,2,4,1
177.949,1,3,3,2
177.95,2,5,3,1
177.95,3,5,2,0
177.951,0,0,-2,0
177.951,1,0,-1,1
177.952,6,6,2,1
177.953,9,12,6,0
177.953,6,15,10,-1
177.954,1,13,8,-3
177.954,-3,6,4,-7
177.955,-8,3,2,-8
177.955,-12,-3,-1,-8
177.956,-10,-3,0,-3
177.957,-6,-2,2,2
177.957,-1,0,1,4
177.958,1,-1,1,6
177.958,7,3,1,9
177.959,14,7,0,9
177.959,16,6,-2,6
177.96,10,0,-5,3
177.961,6,-4,-8,1
177.961,4,-5,-5,3
177.962,3,-3,0,8
177.962,5,-1,3,12
177.963,8,1,4,16
177.964,16,8,7,15
177.964,17,9,4,7
177.965,8,3,2,4
177.965,4,2,3,6
177.966,6,6,5,6
177.966,10,11,5,1
177.967,6,9,4,-2
177.968,0,4,0,-4
177.968,-3,0,-1,-4
177.969,-2,0,-1,-4
177.969,-2,1,0,-3
177.97,0,3,2,-1
177.97,0,5,5,1
177.971,3,7,5,0
177.972,0,4,3,-1
177.972,-1,1,2,0
177.973,-1,5,6,0
177.973,1,10,11,1
177.974,2,13,13,2
177.974,0,9,7,-1
177.975,0,7,4,-2
177.976,0,4,0,-3
177.976,3,3,-3,-6
177.977,0,-1,-6,-7
177.977,-4,-4,-4,-4
177.978,-4,-4,-2,0
177.978,-1,-1,1,4
177.979,1,-2,1,8
177.98,6,-1,2,12
177.98,11,3,3,12
177.981,12,3,2,10
177.981,10,0,0,8
177.982,8,0,1,9
177.982,8,0,1,9
177.983,7,-1,1,10
177.984,8,0,1,9
177.984,7,0,0,7
177.985,7,1,2,10
177.985,11,7,7,11
177.986,12,9,6,5
177.986,7,6,3,2
177.987,3,5,2,0
177.988,0,2,1,-1
177.988,0,2,1,-2
177.989,0,3,0,-1
177.989,0,3,1,-1
177.99,0,3,1,-1
177.991,0,3,1,0
177.991,1,3,1,0
177.992,1,4,2,0
177.992,2,6,3,0
177.993,2,9,7,0
177.993,1,10,8,0
177.994,1,10,8,0
177.994,0,8,6,-3
177.995,-1,7,5,-4
177.996,-3,3,2,-5
177.996,-4,0,0,-5
177.997,-4,-2,-2,-4
177.997,-3,-2,-1,-1
177.998,0,0,0,2
177.999,2,0,0,4
177.999,4,-1,-1,6
178,5,-2,-2,7
178,7,-3,-3,8
178.001,8,-1,0,11
178.001,8,-2,0,12
178.002,11,0,2,13
178.003,13,2,2,14
178.003,13,4,4,12
178.004,13,7,6,11
178.004,12,7,5,8
178.005,10,7,3,4
178.005,8,5,0,0
178.006,3,3,0,0
178.007,3,3,0,-2
178.007,0,1,0,-2
178.008,-1,1,0,-1
178.008,-1,1,1,-1
178.009,0,3,3,0
178.009,1,4,4,0
178.01,0,4,4,1
178.011,2,5,3,0
178.011,2,6,3,0
178.012,1,5,2,-1
178.012,0,5,3,-1
178.013,1,9,8,0
178.013,1,10,9,0
178.014,0,8,6,-2
178.015,-1,7,5,-3
178.015,-2,6,3,-3
178.016,-3,3,1,-4
178.016,-3,1,0,-4
178.017,-2,0,-2,-3
178.017,-2,-1,-1,-1
178.018,0,0,1,2
178.019,2,0,0,3
178.019,2,-3,-3,5
178.02,3,-5,-3,7
178.02,6,-5,-2,10
178.021,10,-1,0,13
178.021,12,0,0,14
178.022,15,3,4,15
178.023,16,5,3,13
178.023,14,6,3,10
178.024,12,6,5,9
178.024,9,4,3,5
178.025,6,3,2,3
178.025,4,4,3,2
178.026,2,1,0,0
178.027,0,0,1,0
178.027,-1,0,1,0
178.028,0,2,2,0
178.028,0,3,3,2
178.029,2,5,4,0
178.029,2,6,4,0
178.03,1,6,4,0
178.031,1,6,3,0
178.031,0,2,0,-1
178.032,0,2,0,0
178.032,2,5,3,0
178.033,3,10,9,0
178.034,2,11,9,-1
178.034,0,7,6,-3
178.035,-3,5,5,-4
178.035,-6,1,2,-3
178.036,-4,1,0,-3
178.036,-3,0,0,-2
178.037,0,1,0,0
178.038,3,2,0,1
178.038,4,0,-3,2
178.039,4,-3,-6,2
178.039,5,-4,-5,5
178.04,6,-3,-4,9
178.04,11,0,-2,9
178.041,11,1,0,11
178.042,12,2,1,11
178.042,12,3,2,11
178.043,12,3,1,10
178.043,12,5,3,9
178.044,11,6,3,6
178.044,6,3,2,4
178.045,4,2,2,4
178.046,3,0,1,3
178.046,0,-1,0,2
178.047,2,2,4,3
178.047,3,5,6,4
178.048,3,5,5,3
178.049,4,6,5,2
178.049,2,5,3,-1
178.05,0,3,2,-2
178.05,0,4,1,-2
178.051,0,5,2,-1
178.051,1,7,5,-1
178.052,0,5,3,-3
178.053,-1,5,3,-3
178.053,0,9,7,-2
178.054,0,9,7,-3
178.054,-3,5,4,-4
178.055,-2,7,6,-3
178.055,-3,5,3,-3
178.056,-3,2,1,-4
178.057,-3,0,0,-3
178.057,-1,1,1,0
178.058,0,0,1,3
178.058,2,0,0,2
178.059,2,-3,-3,3
178.059,2,-3,-3,5
178.06,5,-3,-1,7
178.061,6,-3,0,10
178.061,7,-4,0,12
178.062,8,-5,-1,15
178.062,14,-1,0,17
178.063,21,7,5,17
178.063,21,13,8,14
178.064,17,12,7,10
178.065,14,11,5,5
178.065,10,9,2,0
178.066,1,4,0,-5
178.066,-5,-1,-2,-7
178.067,-8,-4,-3,-4
178.067,-4,-2,0,0
178.068,-1,1,2,1
178.069,3,4,2,1
178.069,6,7,4,2
178.07,4,6,3,1
178.07,3,6,3,0
178.071,2,4,2,-1
178.071,0,4,1,-2
178.072,0,4,3,-1
178.073,0,9,10,1
178.073,1,12,12,0
178.074,-2,9,10,-2
178.074,-7,3,5,-4
178.075,-7,1,3,-1
178.075,-3,1,1,0
178.076,4,5,0,0
178.077,4,3,-2,-3
178.077,0,-1,-4,-1
178.078,2,1,0,1
178.078,5,2,0,2
178.079,2,-2,-4,1
178.079,3,-4,-4,4
178.08,3,-4,-3,6
178.081,6,-2,0,11
178.081,9,-1,0,12
178.082,11,0,2,14
178.082,13,2,4,14
178.083,16,5,5,13
178.083,15,10,8,10
178.084,10,7,5,5
178.085,5,4,4,3
178.085,4,5,3,3
178.086,5,5,3,2
178.086,4,3,0,-2
178.087,-1,0,-1,-3
178.088,-3,0,0,-1
178.088,0,0,0,0
178.089,0,1,1,2
178.089,4,5,4,1
178.09,4,8,6,1
178.09,2,5,4,0
178.091,-1,0,0,0
178.091,0,0,0,0
178.092,2,4,3,0
178.093,4,9,8,1
178.093,4,11,9,0
178.094,2,11,9,0
178.094,0,7,6,-4
178.095,-3,5,3,-6
178.096,-5,1,0,-6
178.096,-5,1,0,-5
178.097,-5,0,0,-2
178.097,-1,-1,0,0
178.098,0,-1,0,1
178.098,1,-2,-1,4
178.099,3,-2,-1,6
178.1,7,-1,0,9
178.1,8,-2,-2,10
178.101,9,-1,0,10
178.101,9,-4,-2,11
178.102,12,1,3,14
178.102,14,6,6,14
178.103,12,3,3,12
178.104,12,4,2,10
178.104,14,8,3,8
178.105,11,8,4,3
178.105,6,6,3,2
178.106,2,2,0,-1
178.106,0,1,0,-2
178.107,0,1,0,-2
178.108,0,3,1,-1
178.108,0,3,1,-1
178.109,0,3,3,0
178.109,0,2,1,-1
178.11,0,2,2,0
178.11,0,3,3,0
178.111,1,5,4,1
178.112,2,6,4,1
178.112,2,6,5,0
178.113,3,11,8,0
178.113,2,10,9,0
178.114,0,8,6,-2
178.114,-1,7,5,-3
178.115,-2,4,1,-5
178.116,-3,0,0,-6
178.116,-5,-1,-2,-5
178.117,-3,-2,-1,-2
178.117,0,0,0,1
178.118,2,2,1,3
178.118,3,0,0,4
178.119,3,-2,-2,5
178.12,4,-3,-1,7
178.12,7,-1,0,9
178.121,8,0,0,10
178.121,10,0,0,11
178.122,12,1,1,12
178.123,13,2,2,11
178.123,13,5,4,12
178.124,14,7,5,9
178.124,10,6,3,5
178.125,7,5,3,4
178.125,5,4,3,3
178.126,3,3,2,0
178.127,0,3,2,0
178.127,0,2,2,0
178.128,0,2,2,-1
178.128,0,2,3,0
178.129,0,2,2,0
178.129,0,3,2,0
178.13,0,4,4,0
178.131,0,4,4,0
178.131,1,3,2,0
178.132,0,3,3,0
178.132,0,5,5,0
178.133,4,11,9,1
178.133,3,11,8,0
178.134,2,9,4,-3
178.135,0,8,3,-4
178.135,-2,3,0,-6
178.136,-5,0,-1,-5
178.136,-5,0,-1,-4
178.137,-2,-1,-1,-1
178.137,0,0,-1,0
178.138,3,2,1,3
178.139,3,0,0,5
178.139,5,0,-1,6
178.14,6,-1,-1,7
178.14,7,-2,-2,8
178.141,8,-1,0,11
178.141,9,-2,-1,12
178.142,12,0,0,12
178.143,13,1,1,13
178.143,14,6,6,12
178.144,13,8,7,10
178.144,10,6,5,7
178.145,7,5,4,4
178.145,4,4,3,1
178.146,1,2,0,-1
178.147,0,0,0,-1
178.147,-1,1,0,-1
178.148,0,3,3,0
178.148,1,4,3,1
178.149,1,5,3,1
178.15,1,5,3,0
178.15,0,4,4,0
178.151,0,3,2,0
178.151,0,3,3,0
178.152,1,5,3,-1
178.152,2,9,7,0
178.153,3,13,9,0
178.154,1,10,7,-2
178.154,0,5,2,-4
178.155,0,6,2,-4
178.155,-2,3,0,-6
178.156,-3,0,-2,-5
178.156,-5,-2,-3,-3
178.157,-2,-2,-2,-1
178.158,0,-1,0,1
178.158,2,0,1,4
178.159,4,0,0,6
178.159,4,-1,0,8
178.16,6,-2,-1,8
178.16,7,-2,0,10
178.161,8,-3,0,12
178.162,10,0,2,14
178.162,13,2,3,14
178.163,13,3,4,13
178.163,13,5,4,13
178.164,15,10,6,9
178.164,12,11,6,4
178.165,5,7,4,1
178.166,2,3,2,0
178.166,0,0,-2,-4
178.167,-3,-2,-3,-3
178.167,-2,-1,-2,-1
178.168,2,1,0,1
178.168,7,8,3,2
178.169,7,8,2,-1
178.17,1,6,3,-1
178.17,0,4,2,-2
178.171,0,3,2,0
178.171,0,3,1,-1
178.172,0,3,2,-1
178.173,1,9,8,0
178.173,3,13,11,0
178.174,1,12,10,0
178.174,-1,7,5,-5
178.175,-5,4,4,-6
178.175,-9,-2,0,-5
178.176,-9,-4,0,-2
178.177,-4,-3,0,2
178.177,0,-1,0,5
178.178,4,0,0,6
178.178,6,1,0,7
178.179,9,3,0,8
178.179,13,5,0,6
178.18,9,0,-3,4
178.181,6,-1,-3,5
178.181,5,-2,-2,7
178.182,6,-4,-3,8
178.182,8,-2,-1,10
178.183,11,1,2,12
178.183,14,8,7,13
178.184,14,10,7,9
178.185,9,6,4,5
178.185,5,4,3,2
178.186,4,8,6,1
178.186,2,8,7,0
178.187,-1,4,4,-2
178.187,-3,2,1,-3
178.188,-4,0,0,-4
178.189,-4,-3,-2,-2
178.189,-2,-1,0,0
178.19,1,3,3,3
178.19,4,5,4,3
178.191,3,4,3,3
178.191,4,3,3,3
178.192,6,8,6,2
178.193,6,13,10,2
178.193,4,13,9,0
178.194,1,8,6,-2
178.194,0,6,3,-5
178.195,-3,4,1,-6
178.195,-5,0,-1,-7
178.196,-6,-1,-2,-6
178.197,-7,-5,-4,-3
178.197,-4,-3,-1,0
178.198,0,0,1,3
178.198,3,1,2,6
178.199,3,-1,1,8
178.199,5,-4,-1,12
178.2,12,0,-1,12
178.201,16,4,0,11
178.201,15,3,0,9
178.202,12,3,0,10
178.202,13,4,2,9
178.203,12,3,1,9
178.204,10,5,2,5
178.204,7,3,1,3
178.205,3,2,1,3
178.205,4,4,4,3
178.206,3,4,4,1
178.206,0,2,1,-1
178.207,-2,0,0,0
178.208,0,2,3,1
178.208,1,4,4,3
178.209,2,5,4,1
178.209,2,5,4,0
178.212,1,6,4,0
178.214,2,7,5,0
178.214,3,6,3,0
178.214,1,4,0,-3
178.215,0,4,0,-3
178.215,2,10,6,-2
178.215,-1,5,2,-2
178.215,-2,2,1,-3
178.216,-3,0,0,-2
178.216,-2,0,-1,-1
178.217,-1,0,0,-1
178.217,0,1,2,3
178.218,3,1,2,5
178.219,2,-3,-1,4
178.219,1,-7,-4,6
178.22,3,-6,-4,8
178.22,8,-2,0,11
178.221,12,2,3,13
178.221,13,4,4,12
178.222,11,3,4,10
178.223,9,3,4,10
178.223,10,4,4,9
178.224,11,6,4,7
178.224,8,4,3,5
178.225,6,4,3,3
178.225,4,4,3,3
178.226,4,5,3,1
178.227,2,3,0,0
178.227,0,1,0,-2
178.228,0,0,0,-1
178.228,0,1,1,-1
178.229,-2,1,3,1
178.229,2,3,3,4
178.23,10,10,3,2
178.231,8,9,1,-1
178.231,2,5,0,-2
178.232,0,3,1,-2
178.232,0,5,2,-2
178.233,3,12,8,0
178.233,3,12,9,-1
178.234,0,9,6,-3
178.235,-1,7,5,-5
178.235,-6,0,-1,-8
178.236,-9,-3,-2,-7
178.236,-6,-1,0,-2
178.237,-1,0,1,0
178.237,1,1,2,3
178.238,3,2,3,4
178.239,3,0,0,5
178.239,5,-1,0,8
178.24,6,-3,-2,8
178.24,7,-4,-3,10
178.241,10,-4,-4,10
178.242,12,-1,0,13
178.242,16,4,4,15
178.243,16,6,4,13
178.243,14,7,6,9
178.244,10,5,4,6
178.244,6,4,4,4
178.245,4,4,3,2
178.246,3,4,3,1
178.246,1,2,1,0
178.247,0,0,0,-1
178.247,0,0,0,0
178.248,0,2,1,1
178.248,2,2,1,1
178.249,2,4,2,1
178.25,2,3,2,0
178.25,1,4,3,0
178.251,1,5,5,2
178.251,0,5,4,0
178.252,0,4,4,0
178.252,1,7,6,0
178.253,0,10,8,0
178.254,1,11,8,-1
178.254,0,9,5,-3
178.255,-1,7,4,-5
178.255,-3,2,0,-7
178.256,-6,-1,-3,-7
178.256,-5,-3,-2,-3
178.257,-1,-1,0,0
178.258,0,0,0,1
178.258,1,0,1,3
178.259,1,-3,0,6
178.259,2,-4,0,9
178.26,6,-2,0,10
178.26,8,-2,1,13
178.261,10,-1,1,14
178.262,14,3,3,16
178.262,19,7,4,13
178.263,16,5,2,11
178.263,15,8,3,8
178.264,13,7,1,3
178.264,6,2,-1,0
178.265,3,1,-1,1
178.266,4,2,0,0
178.266,2,2,0,-1
178.267,0,2,1,0
178.267,0,3,2,0
178.268,1,3,2,0
178.269,1,3,1,0
178.269,1,4,2,0
178.27,3,6,3,0
178.27,3,6,3,0
178.271,3,6,4,0
178.271,1,4,2,-1
178.272,0,3,2,-2
178.273,1,7,5,0
178.273,1,9,7,0
178.274,0,8,7,-1
178.274,-1,8,6,-3
178.275,-2,7,6,-4
178.275,-6,0,0,-4
178.276,-5,-3,-2,-4
178.277,-3,-1,0,-1
178.277,0,1,1,0
178.278,2,3,3,3
178.278,3,1,2,5
178.279,3,-1,0,5
178.279,3,-5,-4,6
178.28,4,-6,-4,7
178.281,8,-2,-1,10
178.281,9,-1,1,13
178.282,12,0,2,14
178.282,14,4,4,13
178.283,12,4,5,11
178.283,11,6,6,9
178.284,8,5,5,8
178.285,7,4,4,6
178.285,7,1,0,3
178.286,4,0,-3,0
178.286,3,2,-1,-1
178.287,0,3,3,1
178.288,1,6,7,2
178.288,0,5,5,2
178.289,3,7,4,0
178.289,1,3,0,-1
178.29,1,3,0,-1
178.29,3,3,0,0
178.291,5,6,0,-2
178.291,2,4,-1,-4
178.292,0,5,1,-2
178.293,2,9,6,-1
178.293,0,9,5,-4
178.294,-3,5,5,-5
178.294,-6,4,6,-3
178.295,-5,4,6,-2
178.296,-4,3,6,-2
178.296,-6,0,3,-1
178.297,-5,-2,1,0
178.297,-1,-1,1,5
178.298,8,5,2,8
178.298,16,10,0,2
178.299,8,1,-4,0
178.299,2,-5,-7,1
178.3,1,-8,-7,3
178.301,4,-5,-4,7
178.301,7,-2,0,12
178.302,12,3,4,14
178.302,14,5,6,15
178.303,14,5,5,11
178.304,12,5,5,8
178.304,6,4,4,6
178.305,6,4,4,5
178.305,6,5,5,5
178.306,4,3,3,1
178.306,1,2,1,0
178.307,0,2,1,0
178.308,1,3,2,1
178.308,2,5,2,0
178.309,0,3,3,-1
178.309,-1,1,1,0
178.31,0,2,1,0
178.31,3,5,3,0
178.311,2,7,5,0
178.312,0,3,3,0
178.312,0,3,3,0
178.313,2,9,8,0
178.313,3,13,9,0
178.314,2,11,7,-3
178.314,-1,8,6,-3
178.315,-4,2,1,-6
178.316,-6,0,-1,-7
178.316,-7,-2,-2,-5
178.317,-4,-1,0,-2
178.317,-2,0,1,0
178.318,-3,-3,0,3
178.318,0,-6,-2,4
178.319,2,-5,-2,8
178.32,6,-3,0,12
178.32,11,0,1,15
178.321,14,0,2,17
178.321,16,0,0,17
178.322,20,5,2,16
178.323,21,8,2,14
178.323,19,9,3,8
178.324,13,6,2,3
178.324,4,1,-1,0
178.325,0,0,-1,-1
178.325,0,2,1,0
178.326,2,4,3,1
178.327,2,5,4,0
178.327,1,3,1,0
178.328,0,3,1,-1
178.328,0,2,0,-1
178.329,1,5,3,1
178.329,3,7,5,0
178.33,1,5,3,0
178.331,0,2,1,-3
178.331,-2,1,1,-1
178.332,0,4,5,1
178.332,3,8,8,2
178.333,5,14,11,0
178.333,1,11,9,-2
178.334,-2,6,4,-4
178.335,0,8,5,-2
178.335,0,6,2,-6
178.336,-3,2,0,-6
178.336,-4,0,-3,-5
178.337,-4,-1,-2,-2
178.337,0,0,0,0
178.338,1,0,0,2
178.339,2,-2,-2,3
178.339,3,-3,-2,6
178.34,5,-3,-1,8
178.34,8,-1,0,11
178.341,11,0,1,13
178.341,11,0,2,13
178.342,11,0,3,13
178.343,11,1,4,12
178.343,12,5,5,11
178.344,9,5,7,9
178.344,6,4,6,7
178.345,4,4,6,6
178.346,4,4,5,4
178.346,1,0,3,2
178.347,1,0,2,2
178.347,2,1,1,2
178.348,6,7,2,1
178.348,6,7,2,0
178.349,7,8,0,-3
178.35,2,4,-2,-5
178.35,0,1,-3,-5
178.351,-1,1,-1,-4
178.351,-1,2,1,-2
178.352,-1,3,2,-2
178.352,0,6,6,1
178.353,4,13,10,2
178.354,4,13,9,0
178.354,1,7,4,-4
178.355,-3,5,2,-5
178.355,-5,2,1,-4
178.356,-3,1,1,-2
178.356,-2,0,0,-1
178.357,-2,-2,-1,-1
178.358,-1,-2,0,1
178.358,1,0,2,5
178.359,2,-2,0,5
178.359,3,-3,0,8
178.36,6,-4,-2,8
178.36,8,0,1,12
178.361,13,2,1,13
178.362,16,5,2,13
178.362,16,6,2,10
178.363,14,6,1,7
178.363,9,5,2,6
178.364,6,3,2,4
178.364,4,4,3,3
178.365,4,4,4,2
178.366,2,3,3,1
178.366,0,2,2,0
178.367,2,4,2,0
178.367,2,5,2,1
178.368,2,4,1,0
178.368,1,2,0,-1
178.369,0,1,0,-1
178.37,-1,0,0,-1
178.37,0,1,1,0
178.371,1,3,3,2
178.371,4,5,3,1
178.372,3,5,3,1
178.372,5,10,6,2
178.373,7,14,8,0
178.374,4,12,7,-2
178.374,1,9,5,-3
178.375,0,7,3,-6
178.375,-4,4,0,-8
178.376,-6,0,-2,-8
178.377,-8,-4,-3,-5
178.377,-5,-4,-3,-2
178.378,-3,-3,-1,2
178.378,0,-5,-1,4
178.379,0,-7,-1,7
178.379,5,-3,1,13
178.38,11,0,4,15
178.381,13,4,5,15
178.381,13,3,2,12
178.382,11,4,4,13
178.382,12,2,2,12
178.383,11,0,-1,10
178.383,12,4,1,8
178.384,11,5,3,4
178.385,2,0,2,3
178.385,0,-1,3,4
178.386,1,0,3,4
178.386,1,2,3,3
178.387,1,2,3,3
178.387,4,6,4,4
178.388,8,10,5,3
178.389,8,10,2,1
178.389,11,11,0,-3
178.39,6,9,-3,-10
178.39,-5,0,-2,-10
178.391,-7,-1,0,-6
178.391,-5,0,-1,-4
178.392,0,4,2,-1
178.393,2,13,9,0
178.393,5,16,12,0
178.394,1,13,9,-1
178.394,1,12,7,-4
178.395,-4,3,0,-9
178.395,-9,-3,-3,-9
178.396,-10,-4,0,-4
178.397,-6,-5,0,0
178.397,-4,-5,1,3
178.398,0,-1,3,7
178.398,3,0,4,12
178.399,12,3,2,12
178.399,13,3,0,9
178.4,10,-1,-2,9
178.401,8,-4,-4,9
178.401,8,-6,-7,10
178.402,12,-3,-4,12
178.402,15,2,2,13
178.403,15,6,6,13
178.403,13,7,6,11
178.404,10,6,5,8
178.405,10,8,4,4
178.405,5,6,2,0
178.406,1,3,1,-1
178.406,0,3,2,-2
178.407,-1,3,1,-1
178.407,1,5,2,0
178.408,5,9,3,-3
178.409,2,9,2,-3
178.409,1,8,1,-6
178.41,-3,0,-2,-6
178.41,-4,0,-2,-4
178.411,-1,2,0,0
178.411,1,3,0,-1
178.412,0,3,3,0
178.413,0,6,9,5
178.413,4,10,11,5
178.414,4,10,8,-2
178.414,-3,4,7,-3
178.415,-10,-1,4,-1
178.416,-8,0,5,0
178.416,-10,-6,3,0
178.417,-7,-6,2,2
178.417,-2,-1,5,6
178.418,1,2,11,13
178.418,9,7,9,14
178.419,15,9,3,8
178.42,12,3,-3,0
178.42,3,-5,-7,0
178.421,0,-9,-8,6
178.421,9,-4,-7,8
178.422,13,-2,-8,8
178.422,14,0,-4,10
178.423,18,7,3,11
178.424,15,11,8,11
178.424,11,6,3,9
178.425,14,7,0,1
178.425,7,7,0,0
178.426,2,5,3,0
178.426,1,5,4,0
178.427,2,7,3,-3
178.428,-2,3,1,-5
178.428,-4,2,2,-1
178.429,3,9,3,0
178.429,6,10,2,-3
178.43,2,8,1,-7
178.43,-5,0,-3,-6
178.431,-4,-5,-5,-3
178.432,-2,-5,-5,-1
178.432,0,1,4,2
178.433,0,8,12,6
178.433,1,8,13,7
178.434,5,10,12,9
178.434,13,20,15,8
178.435,12,16,7,-3
178.436,-2,2,0,-9
178.436,-10,-4,-5,-9
178.437,-8,-4,-4,-6
178.437,-5,-4,-4,-3
178.438,-4,-5,-2,0
178.439,-1,-6,-3,4
178.439,1,-5,-1,9
178.44,6,-5,-1,12
178.44,12,0,1,15
178.441,13,0,0,13
178.441,11,0,2,15
178.442,14,2,4,13
178.443,11,2,2,10
178.443,11,5,4,9
178.444,10,7,6,7
178.444,7,8,7,6
178.445,5,8,8,3
178.445,0,3,6,2
178.446,0,4,5,1
178.447,0,3,2,1
178.447,5,7,4,1
178.448,4,9,6,0
178.448,0,3,1,-4
178.449,-7,-4,-4,-4
178.449,-1,0,-2,-2
178.45,2,5,0,0
178.451,3,5,2,0
178.451,5,6,1,1
178.452,8,8,0,-1
178.452,6,10,2,-1
178.453,7,14,6,-2
178.453,1,9,5,-3
178.454,-3,5,3,-6
178.455,-5,4,3,-8
178.455,-10,-1,1,-7
178.456,-12,-6,0,-1
178.456,-6,-5,0,3
178.457,0,-3,1,8
178.458,6,0,1,8
178.458,9,1,2,8
178.459,10,2,0,8
178.459,9,0,-2,8
178.46,12,0,-5,6
178.46,12,1,-4,2
178.461,7,1,-1,4
178.462,7,4,3,7
178.462,8,5,7,11
178.463,9,4,7,12
178.463,8,5,7,10
178.464,4,1,4,5
178.464,1,0,3,4
178.465,1,0,2,3
178.465,3,4,3,1
178.466,3,3,2,0
178.467,2,4,2,0
178.467,3,6,2,-2
178.468,0,7,5,-1
178.468,0,6,3,-1
178.469,2,3,-2,-4
178.47,0,-1,-6,-1
178.47,5,1,-3,2
178.471,5,0,0,5
178.471,6,2,4,10
178.472,10,8,6,7
178.472,11,12,5,0
178.473,7,13,6,-3
178.474,3,11,2,-6
178.474,0,7,0,-9
178.475,-4,2,-3,-10
178.475,-3,2,-3,-10
178.476,-3,4,0,-8
178.476,-3,3,0,-5
178.477,-1,3,2,-1
178.478,-2,0,3,2
178.478,-2,-3,2,6
178.479,0,-3,4,11
178.479,7,2,9,17
178.48,11,1,5,14
178.48,9,0,1,11
178.481,10,-1,-4,7
178.482,10,-4,-11,4
178.482,15,0,-10,4
178.483,17,8,0,7
178.484,16,12,5,5
178.484,11,7,0,0
178.484,8,4,-2,0
178.485,5,3,0,2
178.486,2,0,5,8
178.486,0,-1,10,12
178.487,1,0,10,12
178.487,2,4,14,9
178.488,0,3,10,3
178.488,-7,0,8,3
178.489,-2,0,4,1
178.49,0,1,-1,-6
178.49,-3,-2,-8,-13
178.491,-7,-4,-13,-17
178.491,-9,-3,-11,-15
178.492,-4,2,-4,-8
178.493,5,16,12,4
178.493,13,25,20,10
178.494,14,21,14,3
178.494,8,13,0,-8
178.495,2,7,-7,-13
178.495,2,6,-9,-10
178.496,6,14,5,3
178.497,12,16,18,16
178.497,12,11,17,17
178.498,6,3,13,12
178.498,-3,-10,2,5
178.499,-12,-22,-9,0
178.499,-12,-18,-6,0
178.5,-7,-9,1,4
178.501,-6,-5,8,9
178.501,-3,-6,8,14
178.502,1,-3,6,12
178.502,2,-5,0,5
178.503,1,-8,-9,0
178.503,4,-3,-7,2
178.504,10,6,1,4
178.505,9,9,11,12
178.505,10,12,22,24
178.506,12,8,22,28
178.506,15,9,20,22
178.507,11,8,17,14
178.507,3,2,5,-3
178.508,-10,-9,-10,-17
178.509,-17,-17,-27,-25
178.509,-10,-15,-37,-31
178.51,-3,0,-19,-21
178.51,0,10,-2,-8
178.511,7,18,9,2
178.511,12,24,23,15
178.512,16,28,33,26
178.513,21,29,35,25
178.513,16,23,29,13
178.514,0,7,19,4
178.514,-12,-2,10,-3
178.515,-22,-14,0,-8
178.515,-26,-21,-4,-6
178.516,-24,-28,-15,-6
178.517,-14,-22,-15,-4
178.517,-11,-19,-10,-2
178.518,-4,-6,2,8
178.518,6,7,9,9
178.519,9,5,1,5
178.52,11,5,-5,5
178.52,21,14,1,12
178.521,26,12,-2,11
178.521,24,1,-18,0
178.522,17,0,-12,6
178.522,19,6,-1,9
178.523,19,14,8,8
178.524,12,9,4,4
178.524,7,5,1,0
178.525,2,1,0,0
178.525,3,4,2,0
178.526,4,7,2,-2
178.526,2,5,-3,-9
178.527,-1,1,-10,-12
178.528,0,3,-9,-10
178.528,7,12,0,0
178.529,13,17,7,4
178.529,14,20,15,8
178.53,10,15,14,7
178.53,5,9,9,6
178.531,4,6,7,4
178.532,-1,-1,1,-1
178.532,-5,-5,-7,-11
178.533,-6,2,-4,-11
178.533,-1,11,4,-7
178.534,-3,2,-4,-13
178.535,-10,-4,-3,-3
178.535,-5,-10,-7,3
178.536,3,-7,-8,6
178.536,11,0,-6,6
178.537,14,4,-5,4
178.537,15,7,-3,3
178.538,16,13,2,5
178.539,13,12,4,5
178.539,9,8,6,8
178.54,3,0,8,9
178.54,-3,-8,1,3
178.541,-9,-12,2,6
178.541,-5,-6,8,12
178.542,0,0,16,22
178.543,5,1,19,29
178.543,16,7,21,31
178.544,18,7,17,22
178.544,6,1,14,11
178.545,-11,-9,10,3
178.545,-21,-13,12,4
178.546,-23,-15,8,1
178.547,-21,-19,-5,-11
178.547,-25,-27,-24,-24
178.548,-20,-24,-33,-25
178.548,-5,-8,-24,-13
178.549,16,17,-1,5
178.549,32,32,11,16
178.55,42,41,17,19
178.551,42,36,7,5
178.551,28,19,-13,-13
178.552,15,9,-23,-21
178.552,15,21,-6,-8
178.553,22,38,24,12
178.553,20,32,26,10
178.554,5,17,25,9
178.555,-6,5,20,5
178.555,-17,-11,4,-7
178.556,-29,-22,-6,-17
178.556,-35,-33,-22,-25
178.557,-32,-28,-21,-21
178.557,-20,-16,-13,-12
178.558,-10,-4,1,2
178.559,0,0,7,12
178.559,12,13,20,27
178.56,22,16,21,27
178.56,21,10,11,18
178.561,11,-2,-1,9
178.561,10,-3,-8,7
178.562,18,2,-13,4
178.563,22,10,-8,1
178.563,19,10,-6,-1
178.564,12,9,-2,3
178.564,14,13,7,13
178.565,21,21,24,29
178.566,24,18,23,26
178.566,12,11,26,18
178.567,-10,-5,23,10
178.567,-28,-25,0,-10
178.568,-35,-29,-16,-23
178.568,-30,-15,-7,-21
178.569,-27,-14,-12,-22
178.57,-18,-9,-16,-17
178.57,0,7,-7,-3
178.571,17,15,-7,-5
178.571,15,14,-9,-8
178.572,16,23,5,3
178.572,30,39,16,8
178.573,24,27,9,4
178.574,16,11,-5,-1
178.574,15,17,7,3
178.575,11,23,22,12
178.575,6,17,29,19
178.576,0,3,22,13
178.576,-13,-11,11,5
178.577,-22,-23,1,-1
178.578,-28,-30,-8,-8
178.578,-28,-28,-9,-12
178.579,-26,-21,-8,-11
178.579,-16,-10,-5,-7
178.58,-4,-1,-3,-1
178.58,8,7,0,5
178.581,15,9,0,11
178.582,26,17,5,19
178.582,35,26,12,23
178.583,34,23,11,18
178.583,27,17,5,10
178.584,16,6,-6,1
178.585,11,0,-16,-5
178.585,11,3,-9,0
178.586,11,4,-5,1
178.586,11,8,0,1
178.587,7,4,-1,-1
178.587,0,-6,-15,-10
178.588,0,-7,-21,-13
178.588,5,3,-10,-7
178.589,11,14,4,2
178.59,10,12,9,12
178.59,16,17,18,18
178.591,15,13,16,12
178.591,0,0,7,3
178.592,-10,-6,6,1
178.592,-9,9,31,12
178.593,-14,7,35,11
178.594,-21,-4,20,0
178.594,-27,-7,16,-5
178.595,-31,-13,8,-10
178.595,-32,-20,-2,-13
178.596,-30,-26,-17,-19
178.597,-22,-23,-24,-15
178.597,-5,-13,-24,-8
178.598,11,4,-6,8
178.598,25,17,5,19
178.599,33,24,12,26
178.599,43,32,15,27
178.6,44,28,4,13
178.601,27,10,-9,0
178.601,14,2,-5,5
178.602,10,5,13,21
178.602,7,-1,20,28
178.603,5,-10,2,10
178.603,-4,-13,-5,-3
178.604,-14,-17,-12,-10
178.605,-17,-17,-14,-11
178.605,-11,-11,-9,-5
178.606,0,3,4,7
178.606,13,15,12,13
178.607,18,18,11,9
178.607,15,16,8,4
178.608,12,16,9,3
178.609,10,16,7,-1
178.609,4,9,0,-6
178.61,-3,-1,-6,-7
178.61,-3,-5,-8,-4
178.611,0,-2,-4,2
178.611,8,5,1,4
178.612,8,6,0,-1
178.613,3,6,3,-2
178.613,2,9,6,-1
178.614,2,12,10,0
178.614,3,15,12,-1
178.615,-1,6,3,-6
178.615,-7,-1,-4,-8
178.616,-8,-6,-7,-9
178.617,-7,-6,-5,-4
178.617,-1,-1,-1,1
178.618,3,3,2,6
178.618,7,3,2,8
178.619,7,-1,-2,7
178.62,7,-3,-6,5
178.62,8,-1,-3,9
178.621,13,2,0,10
178.621,13,3,0,9
178.622,11,4,2,10
178.622,10,3,2,9
178.623,11,6,5,10
178.624,13,10,8,9
178.624,11,8,4,4
178.625,4,3,0,0
178.625,1,0,0,-1
178.626,-2,-1,0,-2
178.626,-2,0,2,0
178.627,0,5,7,4
178.628,3,7,8,4
178.628,3,6,6,0
178.629,0,4,4,-1
178.629,-3,2,4,-1
178.63,-2,3,5,1
178.63,4,7,3,-1
178.631,0,3,1,-4
178.631,-4,0,0,-4
178.632,-2,7,8,0
178.633,3,15,14,1
178.633,2,15,13,-1
178.634,-3,8,6,-6
178.634,-5,7,6,-6
178.635,-6,5,5,-6
178.636,-5,4,3,-5
178.636,-6,-4,-4,-7
178.637,-8,-7,-6,-3
178.637,-2,-3,-1,3
178.638,4,2,3,8
178.638,7,1,2,9
178.639,8,-1,0,11
178.64,8,-7,-5,11
178.64,10,-6,-5,11
178.641,13,0,0,15
178.641,19,7,3,17
178.642,22,10,2,13
178.642,19,8,0,7
178.643,14,7,-1,1
178.644,6,4,0,-1
178.644,0,1,2,0
178.645,-4,-2,1,1
178.645,-3,-6,-1,3
178.646,1,-1,0,3
178.646,6,8,6,3
178.647,5,10,9,4
178.648,2,7,8,3
178.648,1,5,6,0
178.649,0,6,6,0
178.649,-1,4,5,-1
178.65,-3,0,2,-1
178.651,-3,0,0,0
178.651,-1,-1,0,2
178.652,1,-3,-4,1
178.652,4,1,0,4
178.653,10,12,8,6
178.653,13,20,16,6
178.654,8,15,10,0
178.654,0,7,3,-9
178.655,-8,-1,-4,-12
178.656,-11,-4,-5,-10
178.656,-8,-3,-3,-4
178.657,-1,1,1,0
178.657,0,0,0,0
178.658,-1,-3,-2,0
178.659,-1,-6,-1,5
178.659,3,-3,1,11
178.66,10,0,3,14
178.66,12,0,1,16
178.661,14,-3,-2,16
178.661,18,-1,-4,13
178.662,17,1,-1,10
178.663,12,1,2,11
178.663,13,6,6,12
178.664,12,7,6,7
178.664,7,4,2,2
178.665,3,3,2,3
178.665,5,8,7,5
178.666,4,3,4,3
178.667,1,0,0,0
178.667,0,-1,-2,-1
178.668,1,2,1,0
178.668,0,4,3,0
178.669,1,5,5,0
178.669,0,3,2,0
178.67,1,1,0,-1
178.671,0,2,0,-2
178.671,-1,1,2,0
178.672,0,4,6,2
178.672,3,13,13,3
178.673,4,18,16,0
178.673,0,13,11,-5
178.674,-6,6,4,-8
178.675,-6,6,4,-7
178.675,-3,6,1,-4
178.676,2,9,0,-9
178.676,-3,0,-6,-11
178.677,-7,-5,-7,-5
178.677,-2,-4,-6,0
178.678,4,0,-1,3
178.679,4,0,0,5
178.679,5,-2,-2,8
178.68,7,-6,-4,9
178.68,9,-5,-2,12
178.681,7,-8,-3,13
178.682,10,-4,1,17
178.682,15,2,6,19
178.683,18,9,11,19
178.683,19,12,11,15
178.684,16,13,8,8
178.684,11,10,6,2
178.685,5,8,2,-3
178.686,0,3,-1,-7
178.686,-4,1,-2,-7
178.687,-7,-3,-4,-6
178.687,-4,-1,-1,-1
178.688,0,4,4,1
178.688,4,9,8,3
178.689,3,8,6,2
178.69,2,6,5,2
178.69,1,6,5,0
178.691,0,3,2,-1
178.691,0,3,3,0
178.692,0,3,4,0
178.692,1,7,6,0
178.693,0,7,6,0
178.694,0,8,5,-1
178.694,0,10,9,0
178.695,-1,6,7,-2
178.695,-7,-1,0,-5
178.696,-10,-5,-1,-6
178.696,-10,-6,-1,-3
178.697,-7,-4,0,1
178.698,-2,-3,2,7
178.698,2,-3,0,8
178.699,4,-5,-1,9
178.699,5,-7,-3,8
178.7,6,-6,-4,11
178.7,11,-3,-2,16
178.701,21,4,0,20
178.702,28,11,2,19
178.702,26,7,0,14
178.703,21,7,1,13
178.703,19,9,0,9
178.704,17,10,0,1
178.704,4,0,-2,-1
178.705,-1,-1,0,0
178.706,-4,-6,-3,1
178.706,1,-3,-3,2
178.707,6,2,-3,-1
178.707,6,5,-2,0
178.708,6,8,1,0
178.709,5,7,2,-3
178.709,-1,2,0,-4
178.71,-4,0,1,-3
178.71,-4,-1,0,-1
178.711,-6,-5,0,0
178.711,-5,-1,6,3
178.712,0,9,17,7
178.713,2,19,28,12
178.713,3,20,26,8
178.714,0,13,17,0
178.714,-8,3,8,-1
178.715,1,5,-3,-11
178.715,-1,1,-12,-16
178.716,-3,-1,-13,-11
178.717,7,9,-6,-8
178.717,6,10,-2,-11
178.718,-11,-7,-6,-9
178.718,-13,-11,-3,1
178.719,0,-2,2,10
178.719,11,2,4,14
178.72,11,-2,0,17
178.721,14,-6,-5,24
178.721,35,10,-4,25
178.722,50,24,-3,11
178.722,29,10,-9,-4
178.723,0,-6,-5,0
178.723,-1,-4,0,5
178.724,7,5,3,2
178.725,5,8,6,1
178.725,2,10,11,0
178.726,-3,4,8,-4
178.726,-14,-8,-1,-11
178.727,-21,-14,-5,-12
178.727,-21,-10,5,0
178.728,-7,3,18,14
178.729,4,9,20,19
178.729,12,11,14,12
178.73,8,9,10,6
178.73,4,6,7,6
178.731,5,6,6,9
178.731,17,16,5,6
178.732,21,24,8,-1
178.733,10,19,3,-18
178.733,-16,0,-1,-21
178.734,-27,-8,0,-11
178.734,-14,-1,3,-10
178.735,-15,-4,2,-11
178.735,-21,-9,3,-3
178.736,-13,-7,4,10
178.737,12,10,7,12
178.737,20,13,2,1
178.738,1,-8,-10,0
178.738,0,-11,-8,10
178.739,14,-1,-2,16
178.74,24,7,-1,11
178.74,19,8,0,5
178.741,4,-4,-4,10
178.741,16,3,-4,16
178.742,37,19,-5,7
178.742,30,15,-11,-8
178.743,5,0,-11,-11
178.744,-7,-3,0,0
178.744,-5,-3,6,5
178.745,-2,-3,6,4
178.745,-6,-4,8,10
178.746,0,1,15,19
178.746,13,11,16,17
178.747,10,8,9,7
178.747,1,1,2,-1
178.748,-5,-1,0,-6
178.749,-13,-7,2,3
178.749,0,3,7,12
178.75,18,14,3,3
178.75,12,8,-5,-12
178.751,-6,-3,-6,-11
178.752,-9,0,4,0
178.752,0,6,9,0
178.753,-7,1,6,-7
178.753,-18,-5,7,2
178.754,3,17,18,12
178.755,25,38,21,4
178.755,14,22,7,-9
178.756,-9,-2,-4,-14
178.756,-17,-13,-10,-13
178.757,-18,-15,-11,-9
178.757,-9,-6,-1,0
178.758,0,-1,4,14
178.758,15,2,1,14
178.759,16,-2,-7,6
178.76,2,-18,-14,10
178.76,13,-3,-1,17
178.761,17,2,4,15
178.761,12,2,7,17
178.762,10,0,6,18
178.762,14,2,2,12
178.763,11,3,3,10
178.764,8,0,3,16
178.764,22,12,5,13
178.765,23,15,2,0
178.765,3,3,-2,-10
178.766,-9,-1,0,-8
178.767,-9,-1,1,-1
178.767,0,5,4,0
178.768,3,7,4,0
178.768,2,5,1,0
178.769,9,10,-1,-4
178.769,7,9,-3,-10
178.77,-2,3,-3,-7
178.771,0,5,0,-8
178.771,-6,1,0,-8
178.772,-12,-3,0,-5
178.772,-7,2,7,2
178.773,9,20,17,9
178.773,18,28,18,1
178.774,5,17,10,-6
178.775,-7,6,5,-11
178.775,-16,-2,1,-9
178.776,-12,-1,3,-2
178.776,-4,0,3,1
178.777,0,1,2,0
178.777,0,0,0,0
178.778,-2,-6,-3,2
178.779,-1,-11,-8,3
178.779,0,-11,-6,11
178.78,8,-9,-4,16
178.78,15,-5,-3,18
178.781,16,-1,1,17
178.781,16,5,8,18
178.782,14,7,13,21
178.783,18,11,13,17
178.783,14,6,5,7
178.784,3,-5,-4,1
178.784,0,-6,-4,5
178.785,9,5,2,6
178.785,13,13,6,5
178.786,11,13,5,3
178.787,13,14,0,-4
178.787,6,9,-4,-13
178.788,-5,1,-5,-12
178.788,-8,-1,-1,-7
178.789,-7,-1,-1,-6
178.79,-7,-3,-2,-6
178.79,-6,-4,-1,0
178.791,2,2,3,5
178.791,7,9,8,7
178.792,6,9,9,5
178.792,6,13,11,2
178.793,4,13,10,-2
178.793,0,13,10,-2
178.794,-1,12,10,-1
178.795,2,14,6,-3
178.795,2,10,2,-10
178.796,-8,2,0,-10
178.796,-9,-1,-2,-7
178.797,-6,-4,-4,-5
178.797,-8,-10,-6,-3
178.798,-6,-10,-6,2
178.799,0,-7,-3,8
178.799,5,-8,-3,12
178.8,6,-12,-5,15
178.8,11,-3,4,22
178.801,19,5,9,26
178.802,30,15,9,25
178.802,35,20,5,11
178.803,16,7,1,3
178.803,3,0,0,2
178.804,-2,-5,-2,1
178.804,0,-3,-1,1
178.805,2,2,3,8
178.806,13,12,6,2
178.806,4,6,3,-2
178.807,-7,-4,0,0
178.807,-3,-2,0,11
178.808,30,24,1,5
178.808,33,31,0,-7
178.809,14,18,-3,-14
178.81,-4,1,-9,-21
178.81,-23,-18,-16,-20
178.811,-20,-14,-9,-18
178.811,-23,-13,0,-7
178.812,-21,-5,19,12
178.812,-3,14,36,25
178.813,15,27,34,17
178.814,7,19,21,2
178.814,-8,4,13,3
178.815,-4,1,6,4
178.815,1,1,1,0
178.816,0,-1,-6,-6
178.816,-3,-5,-9,-7
178.817,-2,-1,-2,1
178.818,7,7,3,6
178.818,8,3,0,1
178.819,1,-6,-8,-1
178.819,-2,-11,-8,2
178.82,2,-7,-2,11
178.821,9,-2,2,19
178.821,17,0,1,19
178.822,21,2,-1,14
178.822,18,1,-3,11
178.823,17,4,0,12
178.823,18,11,5,9
178.824,9,5,3,5
178.825,4,3,1,0
178.825,-1,0,0,-1
178.826,-3,0,2,1
178.826,0,4,6,7
178.827,9,12,8,2
178.827,6,10,5,-2
178.828,0,6,3,-4
178.828,-2,4,1,-2
178.829,0,3,0,-2
178.83,-1,-1,-3,-3
178.83,-3,-7,-10,-5
178.831,-2,-3,-4,-2
178.831,0,3,6,2
178.832,1,9,13,7
178.833,7,15,16,10
178.833,15,23,14,1
178.834,8,18,10,-6
178.834,-5,3,1,-9
178.835,-8,-3,-6,-11
178.835,-7,0,-3,-10
178.836,-9,-3,-3,-6
178.837,-8,-4,0,-1
178.837,-4,0,5,3
178.838,-2,0,7,7
178.838,0,-2,4,9
178.839,5,0,2,13
178.839,13,3,2,14
178.84,15,0,-3,14
178.841,18,-4,-11,10
178.841,19,-4,-13,6
178.842,15,-1,-6,10
178.842,20,9,1,11
178.843,18,13,6,8
178.843,11,7,3,1
178.844,0,0,0,-2
178.845,-6,-5,0,0
178.845,-4,-1,5,6
178.846,1,4,8,7
178.846,4,4,5,4
178.847,5,7,5,4
178.848,7,11,7,3
178.848,7,12,7,-1
178.849,1,7,3,-7
178.849,-7,0,0,-7
178.85,-7,1,4,-3
178.85,-4,2,5,0
178.851,-3,2,4,0
178.852,-2,2,4,-1
178.852,-5,1,6,0
178.853,-2,7,13,6
178.853,4,12,13,5
178.854,4,10,7,-1
178.854,1,10,6,-4
178.855,-6,1,0,-7
178.856,-8,-3,-4,-4
178.856,2,4,-2,0
178.857,12,12,-2,-3
178.857,5,5,-4,-4
178.858,2,0,-4,-2
178.858,0,-5,-8,0
178.859,3,-5,-8,6
178.86,14,0,-7,8
178.86,21,6,-6,4
178.861,8,-4,-5,5
178.861,3,-8,-1,11
178.862,3,-7,1,11
178.862,3,-6,3,12
178.863,1,-3,9,20
178.864,13,7,16,25
178.864,22,15,16,20
178.865,19,13,9,9
178.865,5,3,1,1
178.866,0,1,1,1
178.866,2,2,0,4
178.867,11,9,0,1
178.868,10,8,-5,-9
178.868,-3,-3,-9,-12
178.869,-7,-4,-5,-5
178.869,-2,0,0,-1
178.87,0,3,2,0
178.87,-1,1,3,1
178.871,0,4,7,1
178.872,0,4,8,3
178.872,0,9,12,1
178.873,-3,9,14,2
178.873,-3,10,15,4
178.874,3,13,12,4
178.874,11,18,6,-5
178.875,1,7,-2,-13
178.876,-10,-4,-7,-12
178.876,-10,-7,-8,-8
178.877,-3,-3,-5,-4
178.877,0,-1,-3,0
178.878,3,0,0,4
178.878,4,-2,-1,6
178.879,6,-3,-1,7
178.88,5,-6,-2,9
178.88,6,-4,1,14
178.881,11,-1,3,18
178.881,17,5,5,17
178.882,17,6,5,14
178.882,14,4,3,10
178.883,12,7,5,8
178.884,9,6,4,5
178.884,7,4,3,5
178.885,6,5,2,1
178.885,3,4,2,0
178.886,3,5,0,-1
178.887,1,4,1,-3
178.887,-1,3,2,-3
178.888,-3,0,0,-4
178.888,-4,1,1,-1
178.889,-3,1,3,0
178.889,0,4,4,0
178.89,0,3,5,1
178.891,0,5,6,2
178.891,3,7,6,1
178.892,3,5,1,0
178.892,4,8,4,1
178.893,7,12,7,0
178.893,7,14,8,-2
178.894,4,15,9,-5
178.895,-3,8,5,-8
178.895,-8,1,0,-11
178.896,-10,-1,-3,-9
178.896,-8,-5,-5,-7
178.897,-6,-4,-3,-1
178.897,-1,-2,0,1
178.898,-1,-3,0,6
178.899,2,-3,0,11
178.899,10,-1,0,12
178.9,12,0,0,15
178.9,17,3,1,17
178.901,21,6,1,13
178.902,18,6,0,10
178.902,13,2,0,7
178.903,8,0,-1,7
178.903,9,3,0,8
178.904,11,5,2,5
178.904,7,5,2,1
178.905,2,2,1,2
178.906,2,3,3,2
178.906,0,2,2,0
178.907,0,1,1,0
178.907,0,3,3,-1
178.908,-2,1,4,0
178.908,-1,1,5,2
178.909,0,3,6,0
178.91,-5,0,5,-2
178.91,-10,-4,6,3
178.911,-4,1,10,10
178.911,8,11,12,13
178.912,18,19,9,6
178.912,18,24,8,-1
178.913,11,19,3,-9
178.914,0,7,-3,-11
178.914,0,8,-7,-15
178.915,-4,0,-12,-20
178.915,-10,-4,-10,-16
178.916,-12,-6,-5,-4
178.916,-5,-4,-2,0
178.917,1,0,0,0
178.918,-1,0,4,5
178.918,1,1,7,10
178.919,4,1,6,12
178.919,5,-3,2,10
178.92,2,-6,0,11
178.92,4,-6,0,16
178.921,12,0,2,24
178.922,32,16,6,19
178.922,22,5,-2,8
178.923,10,-4,-6,8
178.923,13,3,-2,3
178.924,5,1,0,3
178.924,2,2,4,5
178.925,7,8,8,7
178.926,8,9,6,2
178.926,2,3,1,-3
178.927,-4,-1,-2,-4
178.927,-4,0,1,0
178.928,0,6,6,0
178.928,-1,5,7,-2
178.929,-7,0,5,-1
178.93,-7,1,6,0
178.93,-3,4,9,2
178.931,0,5,7,4
178.931,4,4,3,3
178.932,6,6,3,1
178.933,7,10,6,3
178.933,11,18,8,-2
178.934,2,13,6,-6
178.934,-5,6,3,-6
178.935,-4,2,-1,-10
178.935,-8,-2,-4,-11
178.936,-10,-6,-5,-8
178.937,-8,-5,-2,-1
178.937,-3,-2,2,6
178.938,2,1,5,8
178.938,4,-1,3,9
178.939,6,0,1,10
178.939,8,-2,-1,9
178.94,7,-4,-1,13
178.941,12,-1,-1,15
178.941,15,-1,-4,13
178.942,20,3,-3,14
178.942,25,12,2,13
178.943,23,17,6,10
178.943,19,15,3,0
178.944,2,2,-1,-5
178.945,-7,-5,-3,-6
178.945,-7,-4,0,-1
178.946,-4,-1,1,1
178.946,0,2,3,5
178.947,8,8,5,5
178.947,9,9,2,-1
178.948,-1,0,0,-2
178.949,-2,-1,0,-1
178.949,-3,0,2,1
178.95,-2,0,4,4
178.95,4,7,8,5
178.951,4,7,7,4
178.951,3,7,7,4
178.952,9,15,11,4
178.953,10,18,11,3
178.953,12,18,6,-5
178.954,1,9,-1,-15
178.954,-11,1,-1,-16
178.955,-15,-3,-3,-14
178.955,-16,-6,-2,-12
178.956,-19,-10,0,-3
178.957,-9,-4,5,8
178.957,7,7,7,12
178.958,13,8,5,7
178.958,4,-5,-2,4
178.959,0,-11,-6,8
178.96,6,-7,-4,15
178.96,21,4,0,17
178.961,25,9,0,13
178.961,20,6,0,11
178.962,16,3,0,10
178.962,12,2,0,5
178.963,7,3,0,3
178.964,4,3,3,3
178.964,4,4,4,3
178.965,1,3,4,1
178.965,-4,-1,3,1
178.966,-3,0,2,1
178.966,0,3,4,4
178.967,6,9,7,4
178.968,5,8,6,2
178.968,1,1,2,-1
178.969,-1,0,0,0
178.969,3,5,2,0
178.97,3,6,3,0
178.97,2,5,3,0
178.971,1,4,2,0
178.972,0,3,1,-1
178.972,1,8,6,0
178.973,4,14,10,0
178.973,4,15,11,-1
178.974,0,10,5,-6
178.974,-4,4,0,-9
178.975,-8,0,-1,-11
178.976,-9,0,0,-5
178.976,-5,0,2,-1
178.977,-2,-1,0,-1
178.977,-5,-5,-2,0
178.978,-6,-8,-3,2
178.978,-2,-8,0,8
178.979,3,-5,2,14
178.98,9,-2,3,14
178.98,4,-5,3,20
178.981,18,3,5,23
178.981,29,14,6,16
178.982,19,6,1,14
178.982,21,7,-1,12
178.983,21,9,-1,5
178.984,15,5,-5,0
178.984,9,5,-2,0
178.985,10,12,3,-2
178.985,3,9,3,-7
178.986,-5,-1,-3,-10
178.986,-10,-7,-7,-8
178.987,-8,-5,-5,-4
178.988,-2,0,0,0
178.988,2,5,6,6
178.989,7,9,7,5
178.989,5,7,5,3
178.99,3,4,3,1
178.99,2,3,2,1
178.991,4,8,6,1
178.992,3,9,8,0
178.992,0,10,11,-1
178.993,-2,11,10,-2
178.993,-4,8,7,-4
178.994,-5,7,7,-4
178.995,-7,3,3,-4
178.995,-6,-2,-2,-5
178.996,-5,-6,-7,-6
178.996,-4,-4,-3,-1
178.997,-2,-3,0,5
178.997,5,1,3,11
178.998,15,6,2,8
178.999,10,1,-2,6
178.999,5,-8,-9,4
179,6,-6,-4,7
179,5,-3,1,11
179.001,6,-3,3,14
179.001,9,0,6,17
179.002,13,3,6,16
179.003,13,5,7,17
179.003,18,10,6,17
179.004,27,17,2,5
179.004,14,10,-1,-7
179.005,-7,-5,-4,-6
179.005,-9,-6,-1,-2
179.006,-5,-4,-1,-1
179.007,-2,1,3,0
179.007,0,5,6,6
179.008,10,11,6,5
179.008,11,13,3,1
179.009,11,13,0,-4
179.009,6,9,-3,-9
179.01,-1,2,-5,-8
179.011,-2,1,-1,-6
179.011,-4,1,0,-5
179.012,-4,3,4,-2
179.012,0,12,11,0
179.013,0,13,13,0
179.014,-1,9,11,-1
179.014,-4,8,10,-2
179.015,-7,0,3,-4
179.015,-8,-3,0,-4
179.016,-7,-3,1,0
179.016,-2,-1,2,3
179.017,1,-1,1,4
179.017,2,0,0,5
179.018,2,-3,-1,6
179.019,3,-3,0,10
179.019,7,-3,0,13
179.02,12,0,0,12
179.02,11,-2,-1,12
179.021,12,-1,-2,12
179.021,14,5,4,14
179.022,15,6,5,15
179.023,22,12,3,10
179.023,18,9,-2,-1
179.024,3,0,-4,-3
179.024,0,0,0,0
179.025,0,1,1,0
179.026,0,1,1,0
179.026,0,1,3,0
179.027,0,3,4,2
179.027,1,4,7,3
179.028,2,5,5,1
179.028,1,4,4,1
179.029,1,3,2,0
179.03,2,6,5,5
179.03,10,10,3,2
179.031,11,9,0,-4
179.031,0,2,-3,-8
179.032,-5,0,0,-5
179.032,-2,7,7,-1
179.033,0,9,9,-1
179.034,0,7,6,-3
179.034,-3,7,6,-4
179.035,-5,2,3,-3
179.035,-3,3,2,-2
179.036,0,2,0,-3
179.036,0,0,0,-2
179.037,-2,-1,0,0
179.038,0,0,2,9
179.038,13,5,-1,6
179.039,12,3,-3,0
179.039,0,-8,-6,3
179.04,0,-9,-4,9
179.04,5,-5,-1,12
179.041,11,-1,0,14
179.042,14,1,2,15
179.042,15,4,4,15
179.043,18,11,8,14
179.043,13,8,7,8
179.044,6,2,3,5
179.044,4,1,1,2
179.045,2,1,2,2
179.046,1,3,3,2
179.046,1,3,3,1
179.047,2,4,3,0
179.047,1,3,0,-2
179.048,0,3,1,0
179.049,1,3,2,-1
179.049,0,4,4,0
179.05,0,4,5,0
179.05,-1,2,3,-1
179.051,-3,0,3,0
179.051,0,3,5,5
179.052,7,11,7,2
179.053,6,12,7,-2
179.053,0,11,8,-3
179.054,0,12,8,-1
179.054,5,15,6,-7
179.055,-4,3,-2,-12
179.055,-8,-2,-7,-12
179.056,-9,-5,-6,-8
179.057,-5,-2,-3,-2
179.057,0,1,0,1
179.058,2,3,2,2
179.058,-1,-6,-1,5
179.059,2,-4,0,9
179.059,7,-2,0,12
179.06,10,0,3,14
179.061,11,1,4,16
179.061,13,2,5,17
179.062,15,2,2,18
179.062,23,7,0,9
179.063,12,4,0,6
179.063,6,1,2,7
179.064,7,4,3,8
179.065,11,9,3,4
179.065,7,6,1,0
179.066,3,2,-1,-1
179.066,0,1,-1,-3
179.067,-2,0,0,-2
179.067,0,2,1,-2
179.068,0,2,0,-2
179.069,-2,2,2,-1
179.069,0,3,4,2
179.07,3,5,4,1
179.07,3,4,3,0
179.071,0,4,3,0
179.071,0,4,4,0
179.072,3,10,10,2
179.073,3,13,13,1
179.073,0,10,10,0
179.074,-1,7,6,-4
179.074,-1,6,2,-6
179.075,-2,5,0,-7
179.076,-2,2,-1,-7
179.076,-6,-3,-5,-7
179.077,-7,-5,-4,-3
179.077,-3,-4,-1,0
179.078,-1,-2,2,4
179.078,-3,-6,3,9
179.079,0,-6,3,14
179.08,8,-3,2,18
179.08,17,-1,-1,16
179.081,19,0,-1,14
179.081,15,1,4,20
179.082,22,9,6,20
179.082,27,13,1,7
179.083,14,7,-1,1
179.084,3,0,-1,0
179.084,3,2,0,0
179.085,0,2,1,0
179.085,-1,1,1,0
179.086,1,3,2,0
179.086,3,7,3,0
179.087,2,6,3,-1
179.088,0,3,1,-2
179.088,-1,0,-1,-2
179.089,0,3,0,-2
179.089,1,6,3,-1
179.09,-1,1,2,0
179.09,-2,0,2,0
179.091,-1,1,3,1
179.092,0,5,8,6
179.092,8,15,15,7
179.093,9,16,13,1
179.093,0,9,6,-3
179.094,-1,7,5,-3
179.094,-1,6,1,-6
179.095,0,9,1,-9
179.096,-5,3,0,-8
179.096,-7,-1,-2,-5
179.097,-5,-3,-3,-5
179.097,-5,-5,-4,-3
179.098,-7,-12,-5,2
179.098,-2,-10,-3,10
179.099,6,-6,-1,14
179.1,11,0,3,18
179.1,17,3,3,16
179.101,15,0,2,17
179.101,16,3,3,16
179.102,16,4,3,13
179.103,14,4,3,9
179.103,7,2,4,8
179.104,5,3,6,8
179.104,5,4,6,9
179.105,11,9,5,10
179.105,22,18,2,1
179.106,13,11,-3,-9
179.107,-5,-3,-9,-13
179.107,-9,-5,-6,-8
179.108,-5,0,-1,-4
179.108,-3,1,1,-2
179.109,-1,2,3,0
179.109,-1,3,6,2
179.11,-1,3,6,2
179.111,-1,2,5,2
179.111,0,3,5,3
179.112,3,7,7,4
179.112,9,17,14,4
179.113,5,15,12,-1
179.113,-3,6,7,-6
179.114,-7,3,6,-4
179.115,-6,2,5,-3
179.115,-4,1,2,-1
179.116,0,4,1,0
179.116,7,6,-3,-3
179.117,7,5,-6,-7
179.117,0,-2,-7,-5
179.118,-4,-9,-9,-1
179.119,-1,-10,-8,3
179.119,1,-10,-7,6
179.12,7,-4,-2,12
179.12,11,0,3,17
179.121,17,5,6,19
179.121,17,5,6,17
179.122,15,3,3,14
179.123,14,6,6,12
179.123,13,7,7,11
179.124,11,7,5,9
179.124,13,10,4,3
179.125,5,3,-1,-3
179.125,-1,-2,-3,-3
179.126,-3,-2,-1,-2
179.127,-3,0,1,0
179.127,-2,1,2,0
179.128,-2,3,4,1
179.128,1,6,7,2
179.129,1,8,7,2
179.129,3,7,5,4
179.13,12,12,0,0
179.131,10,9,-3,-9
179.131,-4,-1,-4,-8
179.132,-6,0,0,-3
179.132,-1,7,8,-1
179.133,-1,8,8,-1
179.134,-1,7,7,-1
179.134,0,10,10,0
179.135,0,6,5,-2
179.135,-3,1,1,-3
179.136,-6,-4,-2,-4
179.136,-5,-3,0,0
179.137,0,0,2,4
179.138,3,3,4,6
179.138,3,-2,-1,4
179.139,3,-4,-2,6
179.139,6,-4,-1,10
179.14,10,-2,-1,11
179.14,11,-1,-1,11
179.141,11,0,0,11
179.142,11,0,1,12
179.142,12,3,3,13
179.143,14,8,7,14
179.143,14,9,6,10
179.144,13,9,3,4
179.144,6,4,0,2
179.145,7,5,0,2
179.146,9,6,-1,-3
179.146,0,0,-3,-5
179.147,-5,-3,-3,-3
179.147,-3,0,0,-1
179.148,-1,1,2,1
179.148,1,4,3,1
179.149,2,5,4,1
179.15,2,6,5,2
179.15,3,5,3,0
179.151,3,6,4,0
179.151,1,6,4,0
179.152,3,10,7,0
179.152,2,11,10,0
179.153,1,11,9,-3
179.154,-1,8,5,-6
179.154,-5,4,2,-9
179.155,-11,-1,0,-7
179.155,-6,0,0,-5
179.156,-3,2,1,-2
179.157,-4,0,0,0
179.157,0,-1,0,4
179.158,4,-1,-1,5
179.158,3,-5,-5,6
179.159,7,-3,-2,9
179.159,9,0,0,12
179.16,10,0,1,12
179.16,10,-1,0,11
179.161,11,0,0,12
179.162,13,2,1,11
179.162,9,-1,0,11
179.163,10,3,5,12
179.163,10,6,9,11
179.164,5,3,6,7
179.164,4,3,6,6
179.165,4,3,3,7
179.166,13,10,3,4
179.166,11,10,0,-2
179.167,4,4,-2,-5
179.167,0,2,-3,-4
179.168,2,4,-2,-5
179.168,0,2,-2,-7
179.169,-4,0,-1,-5
179.17,-2,2,1,-3
179.17,-2,1,4,0
179.171,-3,1,5,0
179.171,-5,0,8,3
179.172,0,8,14,10
179.173,12,19,16,5
179.173,4,13,11,1
179.174,3,12,8,0
179.174,3,11,3,-7
179.175,-3,3,-3,-12
179.175,-7,-1,-6,-12
179.176,-11,-7,-7,-9
179.177,-10,-8,-4,-1
179.177,1,0,0,3
179.178,5,2,0,4
179.178,6,0,0,7
179.179,8,0,0,10
179.179,9,-2,-1,9
179.18,8,-3,-1,10
179.181,9,-3,-1,13
179.181,13,1,3,16
179.182,16,4,5,16
179.182,15,6,5,13
179.183,13,5,4,8
179.184,7,3,3,5
179.184,4,3,4,5
179.185,5,5,6,4
179.185,4,4,4,1
179.186,0,2,1,-1
179.186,-1,1,0,-2
179.187,0,4,3,1
179.188,4,9,5,0
179.188,2,4,2,-2
179.189,-2,0,0,-3
179.189,-2,0,0,-2
179.19,-1,2,0,-1
179.19,0,2,2,1
179.191,0,3,3,0
179.191,-1,2,4,0
179.192,2,11,13,4
179.193,4,16,16,2
179.193,1,12,11,0
179.194,1,11,9,-1
179.194,-1,4,0,-6
179.195,-5,-2,-5,-8
179.196,-7,-7,-9,-3
179.196,4,0,-6,0
179.197,11,6,-2,-1
179.197,4,1,-2,0
179.198,0,-4,-4,0
179.199,1,-5,-4,4
179.199,4,-3,-2,7
179.2,5,-3,-1,9
179.2,9,0,2,12
179.201,11,1,3,13
179.201,12,1,3,13
179.202,12,1,1,13
179.202,14,5,4,12
179.203,14,6,5,11
179.204,12,6,4,7
179.204,8,4,1,2
179.205,3,1,0,0
179.205,0,2,3,0
179.206,-2,0,4,2
179.206,-1,0,4,4
179.207,5,7,5,5
179.208,11,13,3,0
179.208,6,8,0,-5
179.209,-1,2,-1,-5
179.209,-2,1,0,-4
179.21,-3,-1,-4,-4
179.211,-3,-1,-3,-3
179.211,0,3,1,1
179.212,7,12,8,3
179.212,9,18,15,2
179.213,2,15,12,-2
179.213,-6,6,7,-5
179.214,-7,5,7,-3
179.215,-5,5,6,-3
179.215,-6,1,2,-4
179.216,-7,-3,-1,-4
179.216,-8,-6,-2,-1
179.217,-4,-4,0,1
179.217,0,-2,0,6
179.218,3,-2,1,9
179.218,8,-1,0,11
179.219,12,0,-2,11
179.22,17,3,-2,12
179.22,18,5,-1,9
179.221,15,4,-1,8
179.221,10,0,0,6
179.222,6,-2,-1,5
179.223,5,1,3,7
179.223,5,3,6,9
179.224,8,4,6,9
179.224,8,5,5,7
179.225,8,6,3,3
179.225,4,4,2,1
179.226,2,3,2,0
179.227,2,4,3,0
179.227,2,4,2,-1
179.228,0,2,0,-3
179.228,-3,0,0,-2
179.229,-2,0,2,0
179.229,0,1,1,0
179.23,0,4,5,3
179.231,2,5,6,3
179.231,4,5,4,0
179.232,2,7,6,0
179.232,4,13,11,1
179.233,4,14,10,-1
179.233,0,9,5,-4
179.234,-3,6,3,-7
179.235,-7,0,0,-7
179.235,-8,-1,0,-6
179.236,-6,-2,-1,-2
179.236,-1,0,0,0
179.237,1,1,0,2
179.238,3,1,0,4
179.238,5,-1,-3,6
179.239,12,2,-3,5
179.239,11,0,-4,5
179.24,7,-3,-4,6
179.24,5,-4,-3,8
179.241,8,-1,1,12
179.241,10,1,3,13
179.242,11,2,3,14
179.243,14,8,7,14
179.243,12,2,1,10
179.244,11,2,0,7
179.244,11,7,3,6
179.245,10,8,3,3
179.246,6,7,2,0
179.246,2,3,1,-1
179.247,0,3,0,-3
179.247,-3,1,0,-4
179.248,-4,1,2,-1
179.248,-2,2,4,0
179.249,-3,1,4,0
179.25,-5,-1,2,0
179.25,-4,-1,3,1
179.251,-2,1,5,3
179.251,1,5,10,7
179.252,5,11,13,9
179.252,11,17,13,7
179.253,14,21,9,0
179.254,10,17,3,-9
179.254,-1,8,-1,-14
179.255,-12,-3,-5,-14
179.255,-12,-5,-6,-11
179.256,-10,-6,-7,-8
179.256,-6,-4,-2,-1
179.257,0,1,2,5
179.258,9,6,5,7
179.258,8,1,-1,3
179.259,2,-6,-5,4
179.259,3,-6,-3,9
179.26,10,0,0,13
179.26,13,0,2,14
179.261,13,1,2,14
179.262,12,1,1,13
179.262,13,3,5,13
179.263,13,8,7,12
179.263,12,7,6,8
179.264,7,5,3,4
179.264,5,3,2,2
179.265,3,3,2,0
179.266,0,0,0,-1
179.266,-2,-2,-1,-1
179.267,0,0,0,0
179.267,1,3,3,1
179.268,3,5,5,2
179.268,4,7,6,3
179.269,6,8,3,2
179.27,7,9,2,-2
179.27,1,5,0,-3
179.271,-1,2,1,-3
179.271,-2,3,1,-2
179.272,0,8,8,-2
179.273,-2,7,9,-1
179.273,-2,7,9,0
179.274,-1,9,10,-1
179.274,-2,6,6,-5
179.275,-9,-2,0,-5
179.275,-5,-1,-1,0
179.276,4,4,-1,0
179.277,9,7,-1,-1
179.277,4,4,-1,-2
179.278,1,1,0,1
179.278,4,-1,-4,3
179.279,8,-1,-6,1
179.279,3,-7,-7,2
179.28,1,-7,-2,9
179.281,4,-6,0,15
179.281,11,0,5,16
179.282,14,3,6,17
179.282,16,6,8,16
179.283,15,7,8,13
179.283,12,6,5,8
179.284,7,2,2,4
179.285,2,0,2,3
179.285,1,1,3,5
179.286,4,3,4,4
179.286,4,3,3,1
179.287,0,1,1,0
179.287,2,3,0,0
179.288,5,4,0,-3
179.289,1,3,0,-3
179.289,2,8,3,-1
179.29,2,8,2,-3
179.29,0,5,0,-4
179.291,-1,2,0,-5
179.291,-1,3,2,-3
179.292,0,9,9,0
179.293,0,10,9,-1
179.293,-3,6,8,-2
179.294,-4,6,8,-1
179.294,-2,7,8,-1
179.295,-2,7,6,-3
179.295,-4,2,2,-2
179.296,-5,-2,-1,-2
179.297,-4,-4,-2,0
179.297,-1,-2,0,3
179.298,3,0,-1,6
179.298,8,0,0,7
179.299,7,-3,-4,10
179.299,12,-1,-3,11
179.3,13,-2,-5,9
179.301,9,-5,-7,9
179.301,11,0,-1,13
179.302,16,5,4,15
179.302,18,10,8,12
179.303,11,6,5,7
179.303,4,1,1,6
179.304,5,2,3,7
179.305,11,9,4,3
179.305,6,7,3,2
179.306,5,6,0,0
179.306,9,8,0,-3
179.307,4,6,-2,-7
179.307,-4,0,-1,-6
179.308,-4,0,0,-5
179.309,-5,-1,0,-3
179.309,-4,0,1,-1
179.31,-2,2,4,1
179.31,-1,2,6,3
179.311,0,3,7,4
179.312,2,8,11,5
179.312,5,16,17,5
179.313,4,15,13,0
179.313,-1,8,8,-3
179.314,-3,7,7,-4
179.314,-5,2,1,-6
179.315,-7,-1,0,-6
179.316,-4,1,0,-1
179.316,4,7,1,0
179.317,2,2,-1,-3
179.317,0,0,-4,-3
179.318,-3,-6,-6,-2
179.318,-4,-10,-5,2
179.319,-2,-12,-5,10
179.32,6,-8,-2,15
179.32,13,-2,1,18
179.321,19,3,4,19
179.321,21,8,7,20
179.322,23,10,5,17
179.322,24,12,4,10
179.323,15,7,0,2
179.324,5,0,-5,-1
179.324,1,-2,-3,0
179.325,1,0,1,2
179.325,2,3,3,1
179.326,1,3,3,3
179.327,4,7,5,1
179.327,3,7,6,0
179.328,1,4,2,-2
179.328,-1,3,1,-2
179.329,-1,2,1,-2
179.329,-2,2,3,-1
179.33,-1,2,1,-1
179.33,-1,0,0,0
179.331,0,1,1,0
179.332,1,6,7,3
179.332,5,14,13,3
179.333,3,13,12,0
179.333,0,9,8,-2
179.334,-1,9,8,-3
179.335,-5,3,2,-5
179.335,-6,0,0,-4
179.336,-2,2,0,-3
179.336,0,1,-2,-4
179.337,-4,-5,-5,-1
179.337,0,-4,-4,1
179.338,4,-1,-2,4
179.339,5,-2,-3,7
179.339,7,-3,-3,8
179.34,9,-2,-2,11
179.34,12,-1,0,13
179.341,14,1,0,13
179.341,13,2,2,12
179.342,11,3,5,13
179.343,11,6,8,13
179.343,11,7,9,11
179.344,10,6,5,7
179.344,7,4,3,4
179.345,5,4,1,2
179.345,5,4,1,0
179.346,1,3,0,-1
179.347,0,1,0,-3
179.347,0,2,0,-3
179.348,-1,2,0,-2
179.348,0,3,1,-3
179.349,-1,2,1,-2
179.349,0,2,2,0
179.35,0,2,2,1
179.351,1,4,4,1
179.351,1,6,6,2
179.352,5,13,12,3
179.352,4,14,12,0
179.353,0,10,8,-3
179.354,-5,4,5,-5
179.354,-8,2,4,-5
179.355,-10,-2,1,-4
179.355,-8,-2,0,-2
179.356,-4,-2,0,1
179.356,2,2,1,5
179.357,10,7,2,6
179.357,14,10,0,2
179.358,7,0,-6,-1
179.359,1,-6,-7,2
179.359,4,-6,-6,5
179.36,5,-6,-6,5
179.36,2,-10,-6,8
179.361,6,-4,0,17
179.362,16,5,5,18
179.362,18,8,7,16
179.363,17,9,8,12
179.363,12,7,6,9
179.364,8,5,5,5
179.364,6,4,4,4
179.365,4,6,4,0
179.366,-1,2,3,0
179.366,-1,0,0,-1
179.367,-1,1,1,0
179.367,0,2,2,0
179.368,0,4,2,1
179.368,3,6,2,0
179.369,2,7,3,0
179.37,4,8,3,0
179.37,8,11,2,-4
179.371,2,5,-1,-9
179.371,-4,0,-3,-7
179.372,-3,4,3,-2
179.372,0,8,6,0
179.373,1,9,6,-2
179.374,0,8,6,-2
179.374,-1,7,5,-2
179.375,-3,3,4,-2
179.375,-3,1,3,-1
179.376,-5,-1,0,-2
179.376,-3,0,1,1
179.377,0,0,2,4
179.378,1,-1,0,5
179.378,4,-3,-1,6
179.379,5,-4,-3,6
179.379,6,-5,-3,9
179.38,10,0,1,12
179.38,12,1,1,12
179.381,10,0,0,13
179.382,13,0,0,12
179.382,14,5,5,14
179.383,14,8,5,10
179.383,10,5,4,6
179.384,5,2,2,2
179.384,0,-1,2,2
179.385,-2,-2,1,2
179.386,-1,0,4,4
179.386,1,3,5,8
179.387,13,13,6,6
179.387,14,14,2,1
179.388,12,12,-1,-6
179.389,1,5,-4,-11
179.389,-4,1,-3,-9
179.39,-6,0,-1,-7
179.39,-6,0,0,-4
179.391,-3,0,1,-2
179.391,-2,4,5,1
179.392,3,11,12,3
179.393,3,13,12,2
179.393,1,10,9,-1
179.394,0,11,10,-2
179.394,-1,8,5,-5
179.395,-5,2,1,-6
179.395,-7,-2,-3,-5
179.396,-5,-3,-4,-2
179.396,-1,-2,-2,1
179.397,2,-1,-1,3
179.398,3,-1,-1,5
179.398,4,-4,-2,7
179.399,7,-4,-2,9
179.399,10,-1,0,12
179.4,12,0,1,14
179.401,13,0,1,13
179.401,13,1,2,12
179.402,10,0,2,10
179.402,6,1,5,11
179.403,8,5,8,10
179.404,5,3,7,7
179.404,3,2,7,9
179.405,8,7,6,9
179.405,13,10,3,3
179.406,11,9,0,-1
179.406,8,8,-4,-9
179.407,-3,-1,-7,-11
179.407,-9,-7,-6,-5
179.408,-3,-3,-3,-1
179.409,3,6,3,1
179.409,4,10,7,3
179.41,3,7,5,2
179.41,4,6,2,0
179.411,0,0,-2,-3
179.411,0,1,0,-2
179.412,2,11,9,1
179.413,4,16,13,1
179.413,2,12,10,-2
179.414,-3,7,7,-5
179.414,-8,1,2,-7
179.415,-7,0,0,-4
179.415,-4,0,0,-2
179.416,-2,0,0,0
179.417,0,0,0,0
179.417,0,0,-1,2
179.418,2,-3,-2,3
179.418,4,-2,-2,6
179.419,7,-2,-1,9
179.419,8,-2,-1,10
179.42,8,-3,-2,10
179.421,8,-3,-1,12
179.421,11,0,2,14
179.422,14,2,5,16
179.422,16,7,7,15
179.423,14,7,6,10
179.424,10,6,4,5
179.424,6,4,3,4
179.425,4,4,3,2
179.425,2,3,2,0
179.426,0,0,0,-1
179.426,0,1,0,0
179.427,1,3,2,0
179.428,1,5,4,0
179.428,0,6,4,0
179.429,0,3,1,-1
179.429,0,2,0,-1
179.43,1,3,0,-1
179.43,3,5,0,-2
179.431,1,4,1,-1
179.432,2,7,5,-1
179.432,2,11,9,1
179.433,2,12,11,1
179.433,1,9,5,-2
179.434,2,11,6,-2
179.434,3,9,0,-7
179.435,-1,4,-2,-10
179.436,-4,0,-4,-9
179.436,-4,1,-1,-5
179.437,-4,0,-1,-3
179.437,-4,-4,-2,0
179.438,-3,-7,-3,3
179.438,0,-6,-3,7
179.439,5,-4,0,11
179.44,11,0,3,14
179.44,11,0,2,15
179.441,12,0,2,17
179.441,16,3,4,16
179.442,16,5,4,13
179.442,14,8,6,11
179.443,12,8,7,8
179.444,7,5,4,4
179.444,3,3,2,0
179.445,0,2,3,0
179.445,-1,0,3,0
179.446,-3,0,3,0
179.447,-1,1,3,4
179.447,3,2,1,2
179.448,5,2,-2,2
179.448,9,6,-1,1
179.449,12,11,0,-1
179.449,4,5,0,-4
179.45,-2,0,-2,-5
179.451,-2,0,0,-3
179.451,-1,3,2,-2
179.452,0,7,8,1
179.452,2,13,12,2
179.453,4,14,12,0
179.453,0,9,8,-4
179.454,-3,7,5,-6
179.455,-5,3,1,-6
179.455,-5,0,0,-5
179.456,-5,-2,-3,-4
179.456,-4,-4,-3,-2
179.457,-3,-3,0,2
179.457,0,-1,2,6
179.458,2,-2,1,9
179.459,6,-2,0,13
179.459,14,2,0,12
179.46,17,4,0,9
179.46,9,-4,-5,9
179.461,8,-5,-4,10
179.461,9,-4,-2,11
179.462,13,2,1,13
179.463,16,10,8,13
179.463,16,11,8,9
179.464,11,10,7,6
179.464,6,6,4,1
179.465,1,1,0,-3
179.465,-2,0,-1,-3
179.466,-2,0,0,0
179.467,0,1,1,0
179.467,1,2,1,1
179.468,4,5,2,0
179.468,1,6,3,0
179.469,1,6,4,0
179.469,0,6,4,0
179.47,0,3,2,-1
179.471,-3,1,0,-2
179.471,-1,2,2,0
179.472,3,10,9,2
179.472,5,14,11,1
179.473,2,11,9,-1
179.474,-1,7,5,-4
179.474,-3,5,3,-5
179.475,-4,3,2,-4
179.475,-4,2,2,-2
179.476,-3,0,0,-2
179.476,-1,0,-2,-2
179.477,-1,-1,-2,-1
179.478,0,-3,-3,1
179.478,1,-5,-3,5
179.479,6,-3,-2,8
179.479,9,-2,-2,10
179.481,12,1,0,11
179.481,11,0,0,13
179.481,14,1,1,14
179.482,14,2,2,13
179.482,13,3,4,13
179.483,12,5,5,10
179.483,8,4,5,9
179.484,6,2,3,6
179.484,5,5,4,4
179.485,5,5,2,1
179.486,2,4,1,-1
179.486,1,3,0,-1
179.487,1,3,1,-1
179.487,0,3,0,-2
179.488,0,2,0,-2
179.488,0,2,0,-2
179.489,0,4,2,0
179.49,0,3,3,0
179.49,0,3,4,2
179.491,1,4,4,1
179.491,2,7,5,0
179.492,3,11,10,1
179.492,2,11,10,0
179.493,0,8,7,-2
179.494,-1,9,6,-3
179.494,-3,4,3,-6
179.495,-5,2,0,-6
179.495,-6,-1,-2,-6
179.496,-5,-2,-2,-2
179.497,0,0,0,0
179.497,0,0,0,2
179.498,1,-3,-2,5
179.498,4,-4,-2,7
179.499,8,-4,-3,10
179.499,16,2,-2,13
179.5,21,6,-1,10
179.501,15,2,-2,8
179.501,11,0,-1,8
179.502,9,0,-1,7
179.502,9,1,2,9
179.503,11,6,6,9
179.503,8,6,5,7
179.504,5,3,3,5
179.505,2,-1,-1,2
179.505,2,1,2,1
179.506,3,6,6,1
179.506,2,8,9,1
179.507,-1,5,7,0
179.507,-4,-1,2,0
179.508,-5,-2,2,0
179.508,-5,-3,1,1
179.509,0,0,5,4
179.51,1,2,7,7
179.51,5,8,9,8
179.511,9,12,8,5
179.511,11,15,5,-2
179.512,6,15,6,-5
179.513,1,12,3,-6
179.513,3,11,0,-9
179.514,2,10,-2,-14
179.514,-7,1,-7,-17
179.515,-11,-3,-6,-11
179.515,-7,-2,-3,-6
179.516,-3,-2,-3,-2
179.517,-1,-3,-2,0
179.517,0,0,1,6
179.518,5,0,2,9
179.518,7,0,2,11
179.519,9,-1,0,12
179.519,10,-1,0,11
179.52,10,-1,0,12
179.521,12,1,2,13
179.521,12,3,4,14
179.522,12,0,2,12
179.522,13,4,4,11
179.523,11,5,4,8
179.524,7,4,4,6
179.524,6,5,5,5
179.525,6,5,3,2
179.525,4,4,2,0
179.526,2,3,0,-2
179.526,0,1,0,-2
179.527,0,0,0,-2
179.528,0,2,2,0
179.528,0,0,0,-1
179.529,-2,0,1,0
179.529,-1,2,4,0
179.53,-1,3,6,2
179.53,0,3,7,3
179.531,0,4,6,4
179.532,4,9,9,3
179.532,5,13,12,3
179.533,3,12,9,0
179.533,0,7,5,-4
179.534,-2,6,4,-5
179.534,-4,2,0,-7
179.535,-4,1,0,-6
179.536,-4,0,-1,-5
179.536,-4,-1,-2,-2
179.537,0,0,0,0
179.537,3,2,0,3
179.538,3,-3,-3,2
179.538,3,-5,-4,5
179.539,4,-6,-5,7
179.54,8,-3,-1,12
179.54,13,0,0,15
179.541,16,2,2,15
179.541,16,4,2,13
179.542,13,3,3,12
179.542,12,6,6,11
179.543,7,2,4,8
179.544,4,2,3,6
179.544,6,5,4,5
179.545,6,3,2,3
179.545,5,5,1,1
179.546,7,7,1,0
179.546,4,7,0,-2
179.547,2,5,0,-2
179.548,1,6,0,-4
179.548,0,4,0,-4
179.549,-2,2,0,-4
179.549,-1,2,2,-2
179.55,-2,0,0,-1
179.55,0,3,2,1
179.551,4,6,5,1
179.552,5,11,8,1
179.552,2,10,9,0
179.553,0,8,8,-1
179.553,0,8,7,-3
179.554,-2,8,6,-4
179.554,-5,4,2,-5
179.555,-6,0,1,-5
179.556,-6,-2,0,-3
179.556,-4,-2,0,-1
179.557,-2,-3,-1,2
179.557,0,-3,0,4
179.558,3,-4,-1,7
179.559,7,-3,0,8
179.559,5,-5,-1,10
179.56,6,-5,1,14
179.56,8,-3,2,16
179.561,12,0,4,18
179.561,14,4,7,18
179.562,17,6,7,16
179.563,17,9,7,14
179.563,22,13,3,10
179.564,22,15,0,-2
179.564,6,5,-5,-8
179.565,-4,-2,-6,-7
179.565,-5,-2,-4,-5
179.566,-3,-1,-3,-1
179.567,3,5,0,0
179.567,6,9,2,-1
179.568,3,7,2,-3
179.568,-1,2,0,-5
179.569,-5,-1,0,-2
179.569,-2,2,2,2
179.57,5,8,4,3
179.571,8,10,6,2
179.571,7,11,7,0
179.572,2,12,9,-2
179.572,0,9,7,-3
179.573,-3,7,8,-4
179.573,-5,6,9,-3
179.574,-6,4,6,-5
179.575,-9,-1,2,-5
179.575,-10,-5,-1,-3
179.576,-7,-9,-5,0
179.576,1,-1,0,8
179.577,13,9,5,8
179.577,10,7,2,4
179.578,5,0,-1,3
179.579,3,-2,-1,6
179.579,5,-4,-3,6
179.58,7,-1,-1,8
179.58,6,-2,0,9
179.581,7,-2,0,13
179.582,11,-2,0,14
179.582,15,2,1,15
179.583,16,7,4,11
179.583,13,6,2,7
179.584,7,2,0,5
179.584,5,2,3,4
179.585,3,3,3,2
179.586,2,5,4,1
179.586,2,5,4,1
179.587,3,7,4,1
179.587,3,7,2,-1
179.588,-1,1,-1,-4
179.588,-3,0,-2,-5
179.589,-1,2,1,-2
179.589,0,5,4,1
179.59,1,6,5,1
179.591,2,5,4,0
179.591,1,6,4,0
179.592,2,10,9,0
179.592,1,11,10,0
179.593,0,9,8,-2
179.594,0,9,7,-5
179.594,-5,2,1,-8
179.595,-9,-1,0,-7
179.595,-8,-2,0,-3
179.596,-3,-1,0,0
179.596,0,0,0,2
179.597,2,0,0,3
179.598,4,-1,-1,5
179.598,6,-1,-1,7
179.599,8,-2,-2,9
179.599,9,-4,-3,9
179.6,9,-2,-2,11
179.6,11,0,0,13
179.601,14,4,3,14
179.602,15,6,5,13
179.602,13,5,3,10
179.603,11,4,2,7
179.603,9,4,2,5
179.604,7,5,3,3
179.604,5,5,4,2
179.605,0,0,1,-1
179.606,-3,0,1,-1
179.606,-2,0,3,0
179.607,-1,2,4,1
179.607,0,2,5,2
179.608,1,2,4,5
179.609,7,7,3,4
179.609,10,7,1,1
179.61,6,6,1,0
179.61,4,5,0,0
179.611,5,6,-1,-2
179.611,5,8,0,-5
179.612,2,12,5,-4
179.613,-1,10,7,-4
179.613,-2,8,6,-5
179.614,-2,11,7,-6
179.614,-4,5,2,-8
179.615,-7,0,-1,-9
179.615,-8,-3,-3,-6
179.616,-6,-3,-2,-1
179.617,-2,-1,0,2
179.617,1,0,2,5
179.618,2,-1,1,6
179.618,3,-3,0,8
179.619,4,-5,-1,10
179.619,7,-4,0,12
179.62,9,-2,2,16
179.62,13,1,4,17
179.621,17,5,5,17
179.622,16,5,4,13
179.622,14,6,5,11
179.623,10,5,4,7
179.623,6,3,3,4
179.624,3,1,2,2
179.625,0,1,3,1
179.625,0,1,2,1
179.626,0,0,1,3
179.626,6,5,3,3
179.627,7,8,4,0
179.627,1,3,1,-1
179.628,2,4,0,0
179.629,7,7,0,-2
179.629,4,6,0,-4
179.63,0,3,-1,-5
179.63,-1,2,-1,-4
179.631,0,3,0,-3
179.631,1,8,5,-1
179.632,1,11,10,-1
179.633,0,11,10,-1
179.633,-3,7,6,-4
179.634,-5,5,6,-3
179.634,-6,0,2,-3
179.635,-4,0,1,-1
179.636,-1,0,0,0
179.636,0,0,0,0
179.637,2,2,0,1
179.637,3,2,1,4
179.638,4,-1,-2,3
179.638,3,-3,-3,5
179.639,3,-6,-4,7
179.64,5,-6,-3,10
179.64,8,-5,-2,13
179.641,12,0,1,15
179.641,13,3,5,16
179.642,13,3,5,15
179.642,15,7,7,15
179.643,17,11,6,8
179.644,11,8,4,5
179.644,9,7,1,2
179.645,6,6,0,-1
179.645,1,3,-1,-4
179.646,-1,0,-3,-7
179.646,-4,-1,-2,-5
179.647,-2,1,1,-2
179.648,0,3,3,0
179.648,-3,-2,0,0
179.649,-3,-3,0,1
179.649,1,3,6,5
179.65,3,5,8,6
179.65,5,6,7,6
179.651,6,8,8,5
179.652,7,12,10,2
179.652,4,12,10,0
179.653,0,10,7,-1
179.653,2,11,4,-5
179.654,0,9,3,-10
179.654,-9,0,-1,-11
179.655,-13,-6,-6,-10
179.656,-12,-9,-5,-5
179.656,-4,-4,0,1
179.657,2,3,4,6
179.657,8,5,4,9
179.658,10,3,0,7
179.658,9,0,-2,6
179.659,7,-3,-5,8
179.66,10,-2,-5,8
179.66,10,-2,-3,9
179.661,10,0,0,12
179.661,12,1,2,12
179.662,12,3,3,13
179.662,14,7,6,12
179.663,12,6,4,7
179.664,7,4,2,4
179.664,6,5,3,3
179.665,4,4,2,0
179.665,2,4,2,-1
179.666,-1,1,3,-1
179.666,-2,1,3,0
179.667,-2,1,2,0
179.668,-1,1,3,0
179.668,-2,2,4,0
179.669,-1,3,6,3
179.669,2,5,6,4
179.67,7,8,4,1
179.67,7,7,1,-1
179.671,4,7,1,0
179.672,8,15,6,0
179.672,11,18,6,-5
179.673,0,9,1,-11
179.673,-7,3,0,-10
179.674,-9,1,0,-9
179.675,-9,-1,0,-7
179.675,-7,0,0,-3
179.676,-5,-1,1,0
179.676,0,0,1,2
179.677,2,0,2,3
179.677,1,0,2,6
179.678,4,-3,0,8
179.679,6,-3,-2,10
179.679,9,-4,-2,11
179.68,12,-1,0,13
179.68,13,-1,0,12
179.681,12,1,1,13
179.681,14,2,3,14
179.682,15,7,6,12
179.683,12,7,6,9
179.683,9,6,5,6
179.684,6,4,4,4
179.684,4,4,2,2
179.685,2,2,0,0
179.686,0,0,0,-1
179.686,0,0,0,-2
179.687,-1,1,1,0
179.687,1,3,2,0
179.688,1,4,4,2
179.688,2,5,4,0
179.689,1,4,3,0
179.69,0,3,2,-1
179.69,0,2,2,0
179.691,0,3,3,1
179.691,2,6,4,0
179.692,4,12,10,1
179.692,2,12,11,0
179.693,0,8,7,-2
179.693,-2,8,5,-4
179.694,-3,4,2,-6
179.695,-5,0,-1,-7
179.695,-6,-1,-2,-5
179.696,-3,0,0,0
179.696,0,1,0,1
179.697,3,1,0,1
179.697,0,-2,-1,2
179.698,1,-4,-2,5
179.699,4,-2,0,8
179.699,5,-4,0,11
179.7,9,-5,-3,13
179.7,13,-3,-2,15
179.701,17,2,1,18
179.702,24,9,3,16
179.702,24,14,5,9
179.703,14,9,3,5
179.703,5,3,0,1
179.704,2,1,0,0
179.704,0,1,0,0
179.705,0,2,1,0
179.706,0,1,2,0
179.706,0,2,1,0
179.707,0,3,2,0
179.707,-1,1,2,-1
179.708,-3,0,3,0
179.708,-2,3,6,2
179.709,0,5,7,3
179.71,0,5,7,1
179.71,0,3,4,1
179.711,2,7,6,4
179.711,9,12,6,3
179.712,13,18,8,0
179.712,6,13,4,-7
179.713,-3,5,1,-9
179.714,-5,5,2,-8
179.714,-6,1,-1,-9
179.715,-7,-1,-3,-6
179.715,-4,-2,-2,-3
179.716,-2,-2,-2,-1
179.716,0,0,0,2
179.717,4,2,2,5
179.718,5,0,0,5
179.718,4,-3,-3,7
179.719,5,-6,-4,9
179.719,8,-3,-2,10
179.72,10,-1,0,13
179.72,12,1,2,15
179.721,15,3,4,15
179.722,15,4,3,13
179.722,14,6,6,9
179.723,9,4,4,6
179.723,3,1,2,4
179.724,2,1,3,5
179.725,3,1,3,3
179.725,1,0,1,1
179.726,1,1,1,2
179.726,4,5,3,4
179.727,9,10,4,2
179.727,8,10,2,-2
179.728,2,7,0,-6
179.729,-1,5,2,-5
179.729,-4,5,4,-4
179.73,-5,0,0,-4
179.73,-5,-1,0,-2
179.731,-1,1,1,0
179.731,2,7,6,3
179.732,11,17,11,4
179.733,13,20,9,-1
179.733,3,10,2,-8
179.734,-5,4,1,-10
179.734,-11,-4,-3,-10
179.735,-12,-5,-2,-6
179.735,-6,-2,0,-1
179.736,-1,2,5,4
179.737,3,4,6,5
179.737,2,2,4,4
179.738,0,-5,-2,4
179.738,0,-9,-5,7
179.739,5,-9,-5,11
179.739,13,0,1,15
179.74,16,2,2,14
179.741,15,3,2,14
179.741,15,3,2,13
179.742,15,4,2,11
179.742,14,5,1,9
179.743,11,6,3,5
179.743,6,4,2,2
179.744,1,2,2,2
179.745,1,2,4,2
179.745,-1,0,2,1
179.746,-1,0,1,0
179.746,1,2,2,2
179.747,4,6,4,2
179.747,3,6,6,2
179.748,2,6,4,0
179.749,0,2,0,-2
179.749,0,2,0,-1
179.75,1,4,2,0
179.75,2,6,3,0
179.751,0,3,1,-2
179.752,0,6,3,-2
179.752,0,9,8,-1
179.753,2,13,9,0
179.753,2,12,8,-2
179.754,0,10,4,-6
179.754,-5,2,0,-7
179.755,-8,-1,-2,-7
179.755,-7,-4,-3,-2
179.756,0,0,0,1
179.757,1,0,1,3
179.757,3,0,0,5
179.758,2,-4,-2,4
179.758,2,-6,-3,7
179.759,4,-6,-3,9
179.759,8,-1,0,13
179.76,12,0,0,15
179.761,17,5,2,15
179.761,20,7,2,12
179.762,17,7,2,9
179.762,13,7,4,8
179.763,9,5,2,5
179.764,6,1,-1,0
179.764,1,1,0,0
179.765,1,1,1,0
179.765,1,3,2,2
179.766,3,6,5,2
179.766,2,5,5,2
179.767,2,5,2,0
179.768,3,6,3,-3
179.768,-1,1,1,-2
179.769,-3,0,0,-1
179.769,-1,0,0,0
179.77,1,1,0,0
179.77,2,4,2,0
179.771,1,6,5,1
179.772,3,11,11,2
179.772,4,13,13,1
179.773,0,10,9,-2
179.773,-4,7,7,-4
179.774,-5,4,4,-4
179.774,-5,1,1,-4
179.775,-5,-1,-1,-4
179.776,-5,-4,-2,-2
179.776,-2,-3,-2,1
179.777,5,1,-1,2
179.777,6,1,-1,5
179.778,8,0,-2,6
179.779,7,-2,-4,5
179.779,5,-6,-6,6
179.78,8,-3,-2,10
179.78,12,1,1,13
179.781,16,7,6,13
179.781,14,7,6,12
179.782,12,7,5,9
179.783,9,7,6,8
179.783,8,7,4,4
179.784,4,4,2,1
179.784,1,1,2,1
179.785,2,3,1,2
179.785,5,4,0,-1
179.786,0,-1,-3,-3
179.786,-4,-5,-4,-1
179.787,0,-1,0,2
179.788,2,3,4,4
179.788,3,5,6,2
179.789,1,4,5,2
179.789,1,5,6,3
179.79,2,5,6,2
179.791,1,4,3,0
179.791,1,5,5,0
179.792,2,11,10,1
179.792,4,12,10,2
179.793,6,13,6,-2
179.793,5,14,4,-8
179.794,-4,5,-1,-12
179.795,-9,0,-3,-10
179.795,-9,-2,-4,-8
179.796,-8,-5,-4,-5
179.796,-6,-5,-3,0
179.797,0,-2,0,3
179.797,1,-2,1,7
179.798,3,-3,1,10
179.799,6,-3,0,12
179.799,9,-3,0,14
179.8,12,1,2,15
179.8,17,5,5,17
179.801,20,9,4,16
179.801,21,9,2,10
179.802,14,4,-1,3
179.803,4,-1,-2,2
179.803,2,-1,0,3
179.804,3,0,1,4
179.804,6,4,1,6
179.805,10,8,2,3
179.805,9,9,2,0
179.806,3,5,0,-2
179.807,1,5,1,-3
179.807,0,4,1,-4
179.808,-3,2,1,-4
179.808,-5,1,2,-1
179.809,-3,2,3,0
179.81,-1,0,1,0
179.81,-1,0,1,0
179.811,0,3,5,4
179.811,4,10,11,5
179.812,6,16,15,4
179.812,3,12,11,0
179.813,-1,7,5,-2
179.814,-2,7,5,-3
179.814,-5,1,0,-6
179.815,-8,-1,-2,-5
179.815,-4,0,0,-1
179.816,0,1,0,0
179.816,2,2,0,0
179.817,1,1,0,1
179.818,1,-2,-3,2
179.818,2,-3,-2,6
179.819,5,-4,-3,9
179.819,9,-1,0,11
179.82,11,1,0,12
179.82,11,0,1,13
179.821,13,0,0,13
179.822,17,4,2,12
179.822,15,8,6,10
179.823,11,8,6,7
179.823,8,4,3,4
179.824,4,2,0,1
179.824,1,0,0,1
179.825,0,0,0,0
179.826,1,2,2,1
179.826,3,4,2,1
179.827,3,5,2,1
179.827,6,7,3,1
179.828,6,7,1,-1
179.828,2,6,1,-3
179.829,-1,4,2,-3
179.83,-1,3,1,-1
179.83,0,4,2,-2
179.831,0,4,2,-2
179.831,0,7,7,0
179.832,0,10,11,0
179.833,-3,8,11,0
179.833,-4,4,7,0
179.834,-2,4,6,0
179.834,-2,0,0,-1
179.835,0,1,0,-2
179.835,1,2,-1,-1
179.836,0,0,-3,-3
179.836,-3,-7,-5,-1
179.837,0,-3,-1,4
179.838,4,0,0,8
179.838,8,2,2,9
179.839,7,-2,-1,9
179.839,9,-1,0,10
179.84,10,0,1,11
179.841,10,0,1,12
179.841,10,0,2,12
179.842,12,3,3,12
179.842,13,7,7,12
179.843,11,7,6,7
179.843,7,5,4,4
179.844,5,5,2,1
179.845,2,3,2,1
179.845,1,3,1,1
179.846,3,4,0,0
179.846,3,3,-1,-3
179.847,0,1,-1,-3
179.847,-1,0,0,0
179.848,3,4,2,3
179.849,9,10,2,-1
179.849,4,7,1,-5
179.85,-2,1,1,-2
179.85,-3,1,2,0
179.851,1,5,3,-1
179.851,3,10,7,-1
179.852,1,12,10,-1
179.853,0,10,11,0
179.853,-1,9,9,0
179.854,-1,8,5,-3
179.854,-1,5,0,-8
179.855,-4,0,-3,-7
179.855,-6,-3,-4,-4
179.856,-2,-1,-1,1
179.857,2,0,0,2
179.857,1,-1,-1,2
179.858,3,-3,-2,6
179.858,7,-1,0,9
179.859,7,-1,0,10
179.859,9,-1,0,10
179.86,8,-3,-2,10
179.861,9,-3,0,12
179.861,11,0,2,15
179.862,14,4,5,14
179.862,14,8,6,11
179.863,12,8,6,8
179.863,11,8,4,5
179.864,7,6,4,3
179.865,5,5,2,0
179.865,1,2,0,-1
179.866,-1,0,-2,-3
179.866,0,1,0,-2
179.867,0,1,1,-1
179.868,0,1,1,-1
179.868,0,1,1,0
179.869,0,5,4,1
179.869,1,6,6,2
179.87,2,5,5,1
179.87,1,4,3,0
179.871,0,3,2,0
179.871,1,8,8,1
179.872,3,13,11,1
179.873,2,13,10,-1
179.873,-1,7,5,-4
179.874,-5,2,1,-8
179.874,-8,0,0,-7
179.875,-7,0,0,-3
179.875,-2,0,0,-1
179.876,0,0,0,1
179.877,1,-2,-2,2
179.877,2,-3,-3,3
179.878,4,-3,-3,7
179.878,7,-1,-1,8
179.879,8,-1,0,10
179.88,10,0,3,12
179.88,9,0,2,12
179.881,10,0,2,13
179.881,11,0,1,13
179.882,14,4,3,13
179.882,14,9,5,11
179.883,14,9,5,7
179.884,11,7,2,3
179.884,5,5,1,0
179.885,2,3,0,-1
179.885,0,1,0,-3
179.886,0,1,0,-3
179.886,0,0,-1,-2
179.887,0,1,0,0
179.888,1,3,2,0
179.888,1,5,3,0
179.889,2,6,4,0
179.889,2,5,4,0
179.89,1,5,3,0
179.89,1,4,3,0
179.891,1,6,5,0
179.892,2,10,8,0
179.892,2,9,7,-1
179.893,1,9,7,-3
179.893,0,9,6,-4
179.894,-5,4,3,-7
179.895,-9,-1,1,-6
179.895,-8,-2,0,-2
179.896,-3,-1,0,0
179.896,0,0,0,1
179.897,1,-1,0,3
179.897,3,-2,-1,6
179.898,6,-2,-2,8
179.899,9,-3,-3,9
179.899,11,-1,-2,10
179.9,12,0,0,11
179.9,12,0,0,12
179.901,13,3,2,12
179.901,13,5,3,11
179.902,12,7,6,9
179.902,9,7,6,7
179.903,6,5,5,5
179.904,1,-1,0,3
179.904,0,-4,-2,2
179.905,3,2,1,3
179.905,5,6,5,3
179.906,4,7,5,3
179.907,4,7,3,1
179.907,2,5,3,0
179.908,1,5,1,-3
179.908,0,4,1,-4
179.909,-2,2,1,-2
179.909,-1,1,0,-2
179.91,-1,0,-2,-2
179.911,0,1,0,-1
179.911,2,6,6,2
179.912,6,14,13,3
179.912,4,14,13,2
179.913,0,9,8,-3
179.913,0,10,7,-5
179.914,-3,6,3,-7
179.915,-5,2,0,-5
179.915,-4,0,-1,-4
179.916,-3,-3,-3,-2
179.916,-3,-5,-5,-1
179.917,0,-3,-3,2
179.917,3,-2,-2,6
179.918,7,-1,-1,9
179.919,11,1,-1,10
179.919,10,-1,-2,9
179.92,10,-1,-1,11
179.92,10,0,0,12
179.921,10,0,4,14
179.921,10,1,6,12
179.922,8,3,8,11
179.923,6,3,10,10
179.923,3,3,9,8
179.924,3,3,8,8
179.924,4,2,5,8
179.925,9,5,2,5
179.925,11,7,0,1
179.926,10,9,0,0
179.927,8,8,-2,-5
179.927,3,5,-3,-7
179.928,-2,2,-3,-9
179.928,-6,0,-2,-7
179.929,-6,-1,-1,-2
179.929,1,3,0,0
179.93,3,6,2,-1
179.931,2,6,5,0
179.931,2,11,9,1
179.932,3,14,12,0
179.932,-1,7,8,-2
179.933,-4,2,3,-3
179.933,-2,5,5,-1
179.934,-2,3,2,-2
179.935,-2,1,1,-1
179.935,0,1,0,-1
179.936,1,2,0,1
179.936,5,4,1,1
179.937,4,4,1,0
179.938,-1,-4,-4,0
179.938,-1,-6,-4,3
179.939,2,-5,-2,7
179.939,7,-3,0,11
179.94,10,-1,0,12
179.94,10,-1,0,13
179.941,11,0,3,15
179.942,13,2,4,15
179.942,14,6,6,13
179.943,12,5,6,10
179.943,10,5,5,8
179.944,10,7,4,8
179.944,13,11,4,2
179.945,8,8,0,-4
179.946,0,1,-3,-6
179.946,-2,0,-3,-6
179.947,-4,0,-2,-6
179.947,-7,-2,0,-3
179.948,-4,0,3,1
179.948,0,4,6,2
179.949,1,5,6,3
179.95,2,6,5,3
179.95,3,5,5,1
179.951,3,7,5,0
179.951,3,10,7,0
179.952,2,11,9,0
179.953,0,8,8,-2
179.953,-1,7,4,-5
179.954,-4,4,3,-6
179.954,-6,0,1,-5
179.955,-6,-1,-1,-4
179.955,-4,-2,-2,-1
179.956,0,0,0,1
179.957,1,0,0,4
179.957,4,1,1,7
179.958,5,0,-1,6
179.958,7,-1,-1,7
179.959,5,-4,-2,8
179.959,8,-3,-1,10
179.96,10,-1,0,12
179.961,13,2,1,14
179.961,15,3,1,12
179.962,13,2,1,11
179.962,13,6,3,8
179.963,10,7,4,6
179.963,7,6,4,3
179.964,5,4,3,3
179.965,4,4,2,0
179.965,2,3,0,0
179.966,2,3,0,-1
179.966,1,4,2,0
179.967,1,4,2,-1
179.967,0,3,1,-2
179.968,-2,0,0,-3
179.969,-3,0,1,-1
179.969,-2,1,3,0
179.97,0,3,5,3
179.97,3,5,5,2
179.971,3,7,6,3
179.971,8,15,11,4
179.972,8,16,11,1
179.973,5,12,6,-4
179.973,0,10,3,-8
179.974,-5,4,0,-11
179.974,-11,-2,-2,-10
179.975,-12,-4,-2,-6
179.975,-9,-3,0,-2
179.976,-4,-1,1,1
179.977,-2,-2,1,3
179.977,-1,-4,0,6
179.978,2,-3,0,13
179.978,12,0,0,15
179.979,18,2,-2,11
179.979,15,2,0,11
179.98,12,1,0,13
179.981,14,3,1,13
179.981,18,6,0,10
179.982,18,8,0,5
179.982,11,7,2,2
179.983,3,2,2,0
179.983,0,0,0,0
179.984,0,0,0,0
179.985,0,2,2,1
179.985,2,4,5,2
179.986,1,4,5,2
179.986,2,3,3,0
179.987,0,0,1,0
179.988,0,2,3,1
179.988,1,4,5,2
179.989,3,5,6,2
179.989,3,5,4,2
179.99,1,2,1,0
179.99,1,3,2,1
179.991,4,7,4,1
179.992,5,13,9,0
179.992,1,10,6,-3
179.993,-3,6,5,-4
179.993,-1,7,5,-4
179.994,-2,5,4,-4
179.994,-3,2,0,-6
179.995,-5,0,-1,-5
179.996,-4,-2,-3,-3
179.996,-1,-2,-2,0
179.997,1,0,-1,2
179.997,3,0,0,4
179.998,4,-2,-1,5
179.998,4,-5,-3,7
179.999,5,-5,-2,9
180,7,-6,-2,14
180,12,-2,0,17
180.001,18,8,7,17
180.001,17,10,9,14
180.002,14,7,6,10
180.002,9,3,2,6
180.003,5,1,2,5
180.004,2,0,1,5
180.004,3,3,3,6
180.005,10,9,4,3
180.005,7,7,1,0
180.006,2,3,0,-2
180.007,1,3,0,-3
180.007,0,2,0,-4
180.008,-1,2,0,-3
180.008,0,3,1,-2
180.009,1,5,4,-1
180.009,0,3,2,0
180.01,0,1,0,-2
180.011,0,2,2,0
180.011,3,8,6,1
180.012,6,14,11,1
180.012,3,14,10,-1
180.013,0,8,6,-3
180.013,-2,8,5,-5
180.014,-5,3,1,-7
180.015,-7,-2,-1,-6
180.015,-8,-4,-3,-3
180.016,-4,-3,-2,0
180.016,0,0,1,2
180.017,4,3,3,5
180.017,4,0,0,6
180.018,3,-3,-1,7
180.018,4,-6,-2,10
180.019,7,-4,-1,12
180.02,11,-1,0,14
180.02,14,0,1,16
180.021,17,4,2,18
180.021,23,10,4,13
180.022,19,12,5,6
180.023,10,8,2,2
180.023,5,3,0,0
180.024,1,2,1,-1
180.024,-1,1,1,-1
180.025,-3,-3,-1,-2
180.025,-2,0,0,0
180.026,0,1,2,2
180.027,2,3,3,3
180.027,3,3,2,2
180.028,2,2,2,1
180.028,2,4,3,2
180.029,2,3,4,1
180.029,1,1,1,2
180.03,4,5,3,3
180.031,5,7,4,1
180.031,5,10,7,0
180.032,4,14,10,0
180.032,1,11,7,-3
180.033,-1,8,5,-6
180.033,-3,8,6,-6
180.034,-5,5,2,-8
180.035,-8,0,0,-7
180.035,-7,-4,-4,-5
180.036,-3,-2,-3,-2
180.036,0,-2,-2,0
180.037,0,-3,-2,2
180.037,1,-5,-3,5
180.038,5,-2,0,10
180.039,8,-2,0,12
180.039,11,0,1,12
180.04,11,0,0,13
180.04,12,1,2,14
180.041,15,4,5,14
180.042,13,4,5,13
180.042,13,6,5,11
180.043,11,6,4,6
180.043,5,2,2,3
180.044,2,1,2,2
180.044,1,1,1,1
180.045,1,0,0,1
180.046,3,3,1,1
180.046,8,9,3,2
180.047,11,13,3,-2
180.047,3,7,0,-6
180.048,-3,1,-1,-7
180.048,-6,0,1,-5
180.049,-7,-1,1,-2
180.049,-4,0,2,0
180.05,-1,1,3,3
180.051,0,3,6,7
180.051,10,14,11,7
180.052,14,21,12,0
180.052,5,17,10,-4
180.053,-3,8,6,-7
180.054,-9,1,3,-8
180.054,-11,-4,-3,-8
180.055,-9,-5,-5,-6
180.055,-4,-4,-4,0
180.056,4,3,0,4
180.057,9,7,3,4
180.057,9,5,1,3
180.058,3,-2,-3,1
180.058,0,-7,-6,3
180.059,2,-9,-6,7
180.059,7,-3,-2,11
180.06,10,-2,0,13
180.061,12,0,1,14
180.061,14,3,5,16
180.062,15,7,8,16
180.062,15,10,9,12
180.063,11,8,6,6
180.063,4,3,3,3
180.064,4,3,2,3
180.064,3,2,1,0
180.065,0,-2,-2,-2
180.066,-1,-2,-1,1
180.066,3,2,1,3
180.067,8,10,6,2
180.067,5,11,7,0
180.068,0,7,5,-2
180.068,-2,0,0,-4
180.069,-3,-1,-1,-3
180.07,-1,1,0,0
180.07,0,3,2,-1
180.071,1,6,4,0
180.071,4,11,9,1
180.072,4,13,10,0
180.072,0,9,8,-3
180.073,-3,7,5,-5
180.074,-5,6,5,-5
180.074,-7,0,0,-4
180.075,-5,-5,-4,-3
180.075,-1,-4,-5,0
180.076,3,2,0,2
180.076,6,4,2,4
180.077,4,1,0,4
180.078,3,-3,-2,5
180.078,2,-6,-3,7
180.079,4,-6,-2,9
180.079,6,-3,0,12
180.08,9,-1,2,15
180.081,12,1,5,16
180.081,13,3,5,14
180.082,13,5,5,13
180.082,16,10,7,11
180.083,14,11,7,8
180.083,12,9,2,3
180.084,8,6,-1,-1
180.085,4,3,-5,-5
180.085,2,2,-5,-6
180.086,-1,1,-4,-5
180.086,-1,1,0,-2
180.087,0,2,1,0
180.087,1,2,0,-2
180.088,0,3,2,-1
180.089,1,5,4,2
180.089,2,5,4,0
180.09,1,4,3,0
180.09,0,3,3,0
180.091,0,6,7,1
180.091,5,14,12,2
180.092,3,13,11,0
180.093,-2,7,6,-4
180.093,-4,5,5,-5
180.094,-6,1,1,-5
180.094,-4,3,3,-3
180.095,-2,4,4,-2
180.095,-2,1,0,-1
180.096,-2,-1,-1,-2
180.097,-2,-5,-4,1
180.097,0,-6,-5,4
180.098,5,-2,-2,8
180.098,8,-2,-1,9
180.099,9,-1,0,12
180.099,10,-1,0,12
180.1,12,0,1,13
180.101,13,2,3,13
180.101,12,1,3,13
180.102,12,4,5,12
180.102,12,6,6,9
180.103,9,5,4,7
180.104,6,4,4,4
180.104,4,4,2,1
180.105,3,3,1,0
180.105,2,4,2,0
180.106,2,5,2,-1
180.106,1,3,1,-1
180.107,0,1,0,-2
180.108,-1,2,1,-1
180.108,-1,2,1,-2
180.109,-1,3,5,0
180.109,0,4,4,2
180.11,1,4,3,1
180.11,3,5,3,2
180.111,6,9,4,1
180.112,8,14,6,-1
180.112,3,11,4,-4
180.113,-1,7,2,-6
180.113,-3,6,3,-6
180.114,-5,1,0,-7
180.114,-7,0,0,-5
180.115,-5,-1,0,-3
180.116,-2,0,2,1
180.116,1,1,3,3
180.117,2,1,2,4
180.117,2,-1,0,2
180.118,1,-2,0,6
180.118,3,-6,-3,8
180.119,7,-5,-3,10
180.12,9,-3,-2,13
180.12,14,1,0,14
180.121,17,4,3,15
180.121,17,6,4,15
180.122,17,8,5,12
180.122,13,7,4,6
180.123,9,6,2,3
180.124,4,3,2,0
180.124,0,2,3,0
180.125,0,0,3,0
180.125,0,0,2,-1
180.126,-1,0,0,-1
180.127,-1,0,1,1
180.127,3,5,3,3
180.128,7,10,6,2
180.128,6,9,4,-2
180.129,0,4,1,-4
180.129,-3,1,1,-4
180.13,-4,0,1,-2
180.131,-4,0,1,-1
180.131,-1,5,6,0
180.132,2,11,12,2
180.132,1,11,11,0
180.133,0,9,8,1
180.133,4,11,7,1
180.134,6,10,0,-6
180.135,1,4,-4,-10
180.135,-6,-4,-7,-9
180.136,-6,-5,-6,-5
180.136,-4,-5,-3,-2
180.137,-3,-3,-1,0
180.137,0,-4,0,8
180.138,6,-1,2,12
180.139,9,0,1,13
180.139,12,0,0,13
180.14,12,-3,-4,10
180.14,12,-1,0,14
180.141,17,6,5,16
180.141,17,7,6,12
180.142,13,7,6,10
180.143,10,8,6,6
180.143,6,7,6,5
180.144,5,6,5,3
180.144,3,4,1,-1
180.145,-1,-2,-4,-4
180.146,-4,-4,-5,-2
180.146,0,0,-1,0
180.147,3,3,1,1
180.147,5,7,4,2
180.148,4,5,3,0
180.148,1,4,2,0
180.149,2,5,3,0
180.149,2,4,2,-1
180.15,0,3,1,-2
180.151,0,4,4,0
180.151,2,9,8,0
180.152,1,10,9,0
180.152,1,10,8,-1
180.153,0,7,6,-3
180.154,-1,8,6,-4
180.154,-3,4,3,-6
180.155,-4,1,1,-5
180.155,-4,0,-1,-5
180.156,-2,0,0,-2
180.156,-3,-4,-4,0
180.157,0,-7,-7,3
180.158,5,-4,-4,7
180.158,10,0,0,9
180.159,8,-1,-1,9
180.159,7,-1,1,12
180.16,9,0,2,14
180.16,10,0,4,14
180.161,11,1,4,15
180.162,13,4,5,14
180.162,15,9,7,11
180.163,10,6,5,9
180.163,8,3,2,6
180.164,9,5,0,0
180.164,3,2,0,-2
180.165,-2,0,0,-1
180.166,-3,0,3,0
180.166,-1,2,4,1
180.167,0,2,2,0
180.167,-1,2,3,1
180.168,3,5,5,4
180.168,8,10,5,3
180.169,9,10,1,-3
180.17,1,4,-1,-5
180.17,-2,1,-1,-4
180.171,1,5,1,0
180.171,7,13,5,-1
180.172,4,12,5,-4
180.172,-2,4,1,-6
180.173,-3,4,3,-4
180.174,-2,6,4,-5
180.174,-3,5,5,-4
180.175,-4,3,4,-2
180.175,-4,2,4,-1
180.176,-1,4,4,0
180.176,-3,-1,0,1
180.177,0,-4,-2,2
180.178,0,-7,-6,4
180.178,2,-8,-4,8
180.179,6,-5,-2,12
180.179,12,0,1,15
180.18,14,1,2,16
180.18,16,4,3,15
180.181,16,5,4,14
180.182,15,6,5,11
180.182,11,5,4,7
180.183,6,1,1,5
180.183,6,2,1,4
180.184,4,1,2,4
180.184,5,2,0,2
180.185,4,2,0,1
180.186,3,3,1,0
180.186,0,1,1,0
180.187,-1,2,4,0
180.187,0,4,5,1
180.188,0,3,3,0
180.188,0,3,2,0
180.189,0,2,2,2
180.19,7,8,2,3
180.19,10,10,1,-2
180.191,2,6,1,-3
180.191,0,7,6,-2
180.192,-1,7,6,-4
180.193,-3,5,4,-4
180.193,-2,8,6,-4
180.194,-2,6,3,-4
180.194,-2,4,2,-4
180.195,-2,2,0,-4
180.195,-3,0,0,-2
180.196,0,3,3,0
180.197,3,7,5,2
180.197,2,2,0,0
180.198,0,-2,-2,1
180.198,0,-6,-4,3
180.199,0,-11,-7,5
180.2,3,-10,-6,11
180.2,11,-3,-1,15
180.201,15,2,4,19
180.201,19,7,8,19
180.202,18,10,10,16
180.202,15,9,8,11
180.203,11,7,5,7
180.204,8,6,4,5
180.204,7,5,1,2
180.205,5,3,-1,-2
180.205,0,0,-3,-4
180.206,-1,0,-2,-2
180.206,-1,0,-1,-1
180.207,0,1,1,0
180.208,2,4,2,0
180.208,3,7,4,0
180.209,0,5,4,0
180.209,0,4,4,0
180.21,0,4,3,0
180.21,0,3,2,-1
180.211,0,5,5,0
180.212,2,12,10,0
180.212,2,11,9,0
180.213,0,7,6,-3
180.213,-1,7,5,-4
180.214,-5,2,2,-5
180.214,-7,0,0,-4
180.215,-5,-1,0,-2
180.215,-3,-1,0,0
180.216,0,-1,0,2
180.217,2,1,0,4
180.217,3,-1,-1,5
180.218,5,-3,-2,7
180.218,6,-3,-2,9
180.219,8,-3,-2,10
180.22,11,-2,-1,12
180.22,12,0,1,14
180.221,14,3,2,13
180.221,14,3,2,12
180.222,13,6,5,10
180.222,11,5,4,7
180.223,8,4,2,4
180.224,6,4,2,3
180.224,4,4,1,0
180.225,2,3,1,0
180.225,1,3,1,0
180.226,1,2,1,0
180.226,1,4,1,0
180.227,1,3,2,-1
180.228,0,3,2,0
180.228,0,4,3,0
180.229,1,4,4,0
180.229,2,6,3,0
180.23,2,4,2,0
180.23,0,4,2,0
180.231,1,8,5,0
180.232,3,11,9,0
180.232,1,10,8,-1
180.233,-1,8,5,-3
180.233,-1,6,4,-4
180.234,-4,3,0,-6
180.234,-5,0,0,-4
180.235,-5,-2,-2,-2
180.236,-2,0,0,0
180.236,0,0,0,2
180.237,2,0,1,4
180.237,1,-3,-2,6
180.238,4,-4,-3,8
180.238,7,-3,-3,9
180.239,9,-2,-2,10
180.24,10,-1,0,11
180.24,13,1,1,13
180.241,16,6,4,14
180.241,15,7,5,12
180.242,14,9,7,10
180.242,11,8,5,6
180.243,6,4,2,2
180.244,2,3,2,1
180.244,0,1,1,0
180.245,0,0,-1,0
180.245,0,1,0,0
180.246,0,1,0,0
180.246,2,2,0,1
180.247,4,3,0,1
180.248,6,7,1,0
180.248,6,7,2,-1
180.249,2,5,3,-1
180.249,0,4,1,-3
180.25,-3,4,3,-3
180.251,-4,0,3,-2
180.251,-3,4,7,1
180.252,1,7,9,3
180.252,2,8,8,1
180.253,1,9,8,2
180.253,5,11,7,1
180.254,4,9,3,-4
180.255,-2,2,-1,-7
180.255,-6,-3,-5,-7
180.256,-7,-6,-4,-4
180.256,-4,-5,-3,0
180.257,1,0,0,4
180.257,5,0,0,8
180.258,14,5,0,11
180.259,19,7,-2,3
180.259,8,0,-4,2
180.26,2,-4,-3,8
180.26,9,0,0,9
180.261,11,1,1,10
180.261,10,1,3,10
180.262,10,5,5,11
180.263,11,7,7,11
180.263,9,4,4,6
180.264,6,4,4,4
180.264,4,5,5,3
180.265,1,3,3,1
180.266,0,2,2,1
180.266,0,1,0,0
180.267,0,1,0,0
180.267,2,4,3,0
180.268,2,5,4,0
180.268,1,3,2,0
180.269,0,3,1,0
180.27,2,5,2,0
180.27,2,5,2,-1
180.271,0,4,3,-1
180.271,1,10,9,0
180.272,0,10,8,-1
180.272,-3,5,5,-3
180.273,-2,7,7,-2
180.274,-1,8,6,-2
180.274,-3,1,0,-4
180.275,-4,-2,-2,-4
180.275,-3,-4,-5,-2
180.276,0,0,0,1
180.276,3,4,4,4
180.277,5,4,3,5
180.278,3,-1,-1,6
180.278,3,-3,-3,5
180.279,4,-5,-3,7
180.279,7,-4,-2,10
180.28,10,-1,0,13
180.28,13,0,1,14
180.281,15,2,3,14
180.282,14,6,6,11
180.282,12,6,6,10
180.283,10,6,5,7
180.283,7,5,4,5
180.284,6,5,3,2
180.284,4,2,0,0
180.285,0,0,-2,-2
180.286,0,1,0,-1
180.286,0,3,1,0
180.287,1,3,2,0
180.287,1,2,1,0
180.288,0,4,2,0
180.288,0,5,3,0
180.289,1,6,4,0
180.29,0,4,3,0
180.29,0,3,1,0
180.291,2,5,3,0
180.291,3,11,8,0
180.292,4,12,9,-1
180.292,0,10,7,-3
180.293,-3,8,6,-4
180.294,-5,2,1,-6
180.294,-5,1,0,-6
180.295,-4,0,-1,-3
180.295,-3,0,-1,0
180.296,0,-1,0,0
180.296,1,0,0,2
180.297,1,-3,-2,4
180.298,4,-3,-2,7
180.298,6,-2,-1,9
180.299,8,-2,0,12
180.299,11,0,0,12
180.3,12,0,0,11
180.301,13,4,3,13
180.301,11,2,3,11
180.302,9,4,5,10
180.302,8,5,7,9
180.303,5,4,6,6
180.303,4,5,6,6
180.304,5,5,4,5
180.305,8,6,1,3
180.305,9,6,-1,-2
180.306,3,2,-3,-3
180.306,2,3,-3,-4
180.307,2,4,0,-3
180.307,0,3,0,-4
180.308,-3,0,0,-4
180.309,-4,0,2,0
180.309,0,2,3,2
180.31,3,5,5,5
180.31,9,11,5,2
180.311,6,11,6,-1
180.311,3,13,9,-1
180.312,-1,8,8,-3
180.313,-3,5,5,-4
180.313,-4,5,6,-3
180.314,-4,2,2,-4
180.314,-4,2,1,-4
180.315,-4,-1,-1,-3
180.315,-3,-2,-1,-1
180.316,0,0,-1,1
180.317,0,0,1,3
