Program Time [s],data 0,data 1,data 2,data 3
127.838,5,2,1,4
127.839,5,2,2,6
127.84,8,5,2,5
127.84,7,4,2,5
127.841,6,3,1,4
127.841,5,3,1,3
127.842,5,4,3,3
127.842,4,4,2,2
127.843,4,4,3,2
127.844,1,3,3,1
127.844,1,3,2,0
127.845,1,2,2,1
127.845,1,2,2,1
127.846,1,2,3,2
127.846,2,3,2,1
127.847,2,1,0,1
127.848,1,1,1,2
127.848,1,0,1,2
127.849,2,0,0,3
127.849,4,2,1,5
127.85,7,4,2,3
127.85,7,6,4,4
127.851,8,9,6,5
127.852,9,10,5,3
127.852,7,8,2,-1
127.853,4,5,-1,-5
127.853,0,2,-1,-5
127.854,-4,0,-1,-4
127.854,-3,0,0,-2
127.855,-2,0,1,0
127.856,0,1,2,1
127.856,1,2,4,4
127.857,3,3,4,5
127.857,3,1,3,5
127.858,5,1,1,5
127.858,5,0,0,5
127.859,6,1,0,5
127.86,7,2,1,7
127.86,8,3,2,6
127.861,7,4,2,5
127.861,6,3,2,4
127.862,5,5,3,4
127.862,5,5,4,3
127.863,4,5,3,2
127.864,2,3,1,0
127.864,1,3,2,0
127.865,0,2,2,0
127.865,0,0,1,0
127.866,0,1,0,0
127.866,1,1,1,2
127.867,3,3,3,2
127.868,2,2,1,3
127.868,3,1,0,3
127.869,4,3,2,5
127.869,5,3,2,4
127.87,5,2,2,3
127.871,3,3,2,3
127.871,6,7,6,3
127.872,6,9,5,2
127.872,2,6,4,-1
127.873,0,4,3,0
127.873,0,3,2,0
127.874,0,2,1,0
127.875,0,1,0,-1
127.875,0,0,0,0
127.876,0,0,0,0
127.876,2,1,1,3
127.877,3,1,1,4
127.877,4,2,2,4
127.878,5,3,2,5
127.879,5,2,1,4
127.879,5,2,2,4
127.88,5,0,0,4
127.88,5,0,0,5
127.881,8,3,1,6
127.881,9,5,1,4
127.882,7,6,3,4
127.883,5,4,2,3
127.883,3,4,2,2
127.884,3,4,3,1
127.884,2,4,2,2
127.885,4,4,2,1
127.885,2,2,0,0
127.886,0,0,0,0
127.887,0,0,0,0
127.887,1,1,0,0
127.888,2,2,1,2
127.888,2,2,2,3
127.889,3,3,3,3
127.889,3,3,3,3
127.89,4,4,4,5
127.891,4,4,4,3
127.891,6,9,7,4
127.892,5,8,6,2
127.892,3,6,3,0
127.893,2,4,1,-2
127.894,-1,2,0,-2
127.894,-1,0,0,-2
127.895,0,0,0,0
127.895,0,2,1,0
127.896,0,0,1,0
127.896,0,0,3,3
127.897,2,0,3,4
127.898,3,0,2,5
127.898,4,0,1,5
127.899,4,1,2,7
127.899,7,2,2,6
127.9,7,2,1,5
127.9,7,3,2,6
127.901,7,4,2,5
127.902,6,5,3,4
127.902,5,5,4,3
127.903,3,3,3,2
127.903,2,3,2,2
127.904,3,2,1,1
127.904,4,3,2,2
127.905,2,2,0,0
127.906,1,1,0,0
127.906,1,1,0,1
127.907,2,2,1,2
127.907,3,3,1,2
127.908,4,3,1,1
127.908,4,4,2,2
127.909,4,5,2,1
127.91,2,2,1,3
127.91,3,2,0,1
127.911,3,4,2,2
127.911,5,6,5,1
127.912,2,5,5,1
127.912,1,4,4,1
127.913,1,5,5,2
127.914,2,4,3,1
127.914,1,3,3,0
127.915,0,3,4,1
127.915,0,2,2,0
127.916,0,2,2,1
127.917,2,2,2,1
127.917,0,-2,-2,1
127.918,1,-3,-4,2
127.918,6,0,-2,5
127.919,10,4,0,5
127.919,12,6,0,3
127.92,6,2,0,4
127.921,6,3,2,5
127.921,4,2,2,4
127.922,5,3,3,5
127.922,5,4,4,3
127.923,4,5,4,4
127.923,4,5,5,3
127.924,4,4,3,0
127.925,0,3,2,0
127.925,0,2,3,1
127.926,1,3,2,0
127.926,1,3,2,1
127.927,1,2,1,0
127.927,0,0,0,1
127.928,2,0,0,2
127.929,4,0,0,3
127.929,6,4,0,4
127.93,7,4,0,2
127.93,6,4,0,2
127.931,5,3,1,2
127.931,5,7,5,3
127.932,5,8,6,2
127.933,2,4,4,0
127.933,0,3,3,0
127.934,-1,2,1,-1
127.934,-2,0,1,-1
127.935,-2,-1,1,0
127.935,0,0,1,2
127.936,1,1,3,3
127.937,4,3,4,5
127.937,4,3,3,5
127.938,4,1,1,4
127.938,4,0,0,4
127.939,5,0,-1,4
127.939,6,1,0,5
127.94,10,7,4,6
127.941,10,8,3,5
127.941,6,5,2,3
127.942,6,5,2,2
127.942,2,1,0,0
127.943,0,-1,-1,0
127.944,1,1,0,2
127.944,3,4,3,3
127.945,4,5,4,3
127.945,3,3,2,2
127.946,3,4,2,1
127.946,2,3,3,2
127.947,3,3,2,1
127.948,2,2,2,1
127.948,1,2,1,1
127.949,2,2,1,2
127.949,3,2,1,1
127.95,2,1,1,1
127.95,1,2,1,2
127.951,4,5,5,3
127.951,4,7,6,3
127.952,3,7,6,2
127.953,2,5,4,1
127.953,1,4,4,1
127.954,1,2,1,0
127.954,0,2,0,-1
127.955,0,2,0,0
127.956,1,2,1,1
127.956,2,2,1,1
127.957,3,2,0,1
127.957,3,0,0,1
127.958,2,0,0,2
127.958,4,0,0,4
127.959,5,1,1,5
127.96,6,1,1,5
127.96,6,2,1,5
127.961,5,2,2,5
127.961,6,3,3,5
127.962,6,4,4,4
127.962,5,4,4,5
127.963,4,4,3,4
127.964,4,4,3,2
127.964,3,3,2,2
127.965,2,3,2,1
127.965,2,2,1,0
127.966,2,3,1,0
127.966,2,1,1,1
127.967,1,1,0,0
127.968,0,1,2,1
127.968,1,2,2,2
127.969,2,3,3,3
127.969,3,3,3,2
127.97,3,4,4,3
127.97,3,3,3,3
127.971,5,5,5,4
127.972,6,8,4,3
127.972,4,6,3,0
127.973,3,5,2,0
127.973,1,3,0,-2
127.974,0,1,0,-2
127.975,-1,-1,-1,-2
127.975,-1,0,1,1
127.976,1,2,2,4
127.976,5,4,3,3
127.977,3,2,1,3
127.977,2,0,0,2
127.978,1,0,0,3
127.979,3,0,0,5
127.979,5,1,2,7
127.98,7,3,2,7
127.98,8,3,2,7
127.981,8,4,4,7
127.981,8,5,4,5
127.982,7,6,4,4
127.983,6,6,3,2
127.983,4,5,2,0
127.984,1,3,0,0
127.984,0,0,0,0
127.985,1,0,0,0
127.985,2,1,0,0
127.986,2,2,1,0
127.987,3,3,1,1
127.987,3,3,1,1
127.988,3,4,2,2
127.988,4,3,1,1
127.989,4,4,1,2
127.989,4,3,0,1
127.99,2,0,0,1
127.991,3,2,1,2
127.991,4,5,5,3
127.992,6,7,5,3
127.992,5,7,5,1
127.993,2,5,4,0
127.993,0,4,3,0
127.994,-1,1,1,-1
127.995,-1,1,2,0
127.995,0,0,1,0
127.996,0,1,2,2
127.996,0,1,1,2
127.997,1,0,1,2
127.998,2,0,1,4
127.998,3,0,1,5
127.999,5,1,0,6
127.999,6,0,0,5
128,5,1,1,6
128,6,2,2,7
128.001,8,6,4,9
128.001,10,7,4,6
128.002,9,8,3,3
128.003,7,5,1,0
128.003,3,3,1,0
128.004,1,2,0,0
128.004,0,1,0,-1
128.005,0,1,0,0
128.006,0,1,1,0
128.006,0,1,3,1
128.007,0,2,4,2
128.007,1,3,5,4
128.008,3,3,3,3
128.008,2,1,1,3
128.009,3,1,1,3
128.01,3,1,0,3
128.01,4,2,1,3
128.011,4,4,4,4
128.011,4,6,6,5
128.012,4,6,6,4
128.012,4,5,4,2
128.013,4,7,4,1
128.014,2,5,1,-2
128.014,-1,0,-1,-2
128.015,-1,0,0,-1
128.015,0,0,0,0
128.016,0,0,0,0
128.016,1,1,0,2
128.017,3,1,1,3
128.018,5,2,1,5
128.018,7,3,0,5
128.019,9,4,0,5
128.019,10,5,0,3
128.02,7,3,-1,2
128.02,6,2,0,2
128.021,4,1,0,2
128.022,4,3,3,3
128.022,3,4,4,3
128.023,3,4,5,4
128.023,3,4,5,3
128.024,2,2,3,2
128.024,1,2,3,3
128.025,2,2,2,1
128.026,2,3,4,3
128.026,3,4,3,3
128.027,3,2,1,1
128.027,2,1,0,0
128.028,3,2,0,1
128.028,3,3,2,2
128.029,3,3,2,2
128.03,2,1,1,1
128.03,3,2,1,2
128.031,5,5,3,2
128.031,6,9,6,3
128.032,5,8,6,0
128.032,0,2,1,-1
128.033,-2,-1,-1,-1
128.034,-1,0,0,1
128.034,2,3,4,3
128.035,3,5,5,4
128.035,3,4,4,3
128.036,4,4,2,1
128.036,3,3,1,1
128.037,3,2,-1,0
128.038,1,0,0,0
128.038,0,0,0,2
128.039,0,-3,-1,3
128.039,2,-2,-2,4
128.04,5,0,1,8
128.04,9,3,4,10
128.041,10,5,4,8
128.042,11,8,6,7
128.042,9,8,5,5
128.043,6,6,3,2
128.043,4,4,1,0
128.044,2,3,1,0
128.045,1,1,0,-1
128.045,0,1,0,0
128.046,0,1,0,0
128.046,0,1,1,0
128.047,2,3,2,2
128.047,3,4,3,2
128.048,2,2,1,2
128.049,2,2,1,1
128.049,2,3,3,3
128.05,2,2,3,3
128.05,3,2,3,4
128.051,3,4,4,3
128.051,3,5,5,3
128.052,4,7,6,2
128.053,3,6,5,3
128.053,4,6,3,0
128.054,1,1,0,-2
128.054,-1,0,-2,-2
128.055,-1,0,-1,-1
128.055,0,0,1,2
128.056,3,3,2,4
128.057,4,2,2,4
128.057,2,0,0,3
128.058,2,0,0,4
128.058,3,0,0,5
128.059,5,1,2,6
128.06,6,3,2,5
128.06,6,3,2,5
128.061,6,4,3,6
128.061,7,4,3,6
128.062,8,7,4,5
128.062,7,6,3,3
128.063,4,4,2,2
128.064,3,2,0,0
128.064,3,3,0,0
128.065,2,3,0,0
128.065,1,2,0,0
128.066,1,2,0,0
128.066,0,1,1,0
128.067,0,0,1,1
128.067,1,2,2,2
128.068,2,2,3,3
128.069,2,2,3,4
128.069,3,2,3,4
128.07,4,3,2,3
128.07,5,5,2,3
128.071,7,8,5,4
128.071,6,8,6,3
128.072,5,8,5,1
128.073,2,4,1,-2
128.073,0,3,1,-2
128.074,0,2,1,-2
128.074,0,1,0,0
128.075,-1,0,0,-1
128.076,0,0,0,1
128.076,2,2,0,2
128.077,2,1,2,3
128.077,4,2,0,4
128.078,5,1,1,4
128.078,4,0,0,5
128.079,6,0,0,4
128.08,5,2,1,6
128.08,6,2,1,6
128.081,5,2,3,5
128.081,4,3,4,6
128.082,5,5,6,5
128.082,5,5,6,5
128.083,4,6,6,4
128.084,3,5,4,3
128.084,3,4,3,1
128.085,2,1,0,0
128.085,5,3,-1,0
128.086,6,5,-1,-2
128.086,3,2,-2,-1
128.087,1,0,-1,-2
128.088,1,1,0,-1
128.088,0,1,0,0
128.089,3,4,2,2
128.089,3,4,3,2
128.09,2,2,3,3
128.09,3,3,3,3
128.091,5,8,6,4
128.092,6,8,6,3
128.092,4,5,4,1
128.093,2,3,2,1
128.093,1,2,1,0
128.094,1,1,0,0
128.095,-1,0,0,0
128.095,0,0,0,1
128.096,1,2,2,2
128.096,4,4,4,4
128.097,4,3,2,2
128.097,3,2,1,3
128.098,4,2,1,5
128.099,5,2,1,3
128.099,5,1,0,2
128.1,3,0,-2,1
128.1,4,1,0,4
128.101,6,4,3,6
128.101,8,6,5,4
128.102,6,5,5,3
128.103,4,3,3,2
128.103,2,3,2,2
128.104,1,2,4,3
128.104,2,3,3,3
128.105,2,2,2,2
128.105,1,2,1,0
128.106,0,1,1,2
128.107,2,2,2,3
128.107,3,2,2,2
128.108,2,1,1,3
128.108,3,2,2,3
128.109,4,3,2,4
128.109,4,3,2,4
128.11,5,2,0,2
128.111,3,3,1,2
128.111,5,6,5,3
128.112,5,8,6,2
128.112,3,5,4,0
128.113,2,5,3,0
128.113,0,2,1,0
128.114,0,1,0,-1
128.115,0,1,0,0
128.115,0,1,1,0
128.116,1,2,1,1
128.116,1,1,1,1
128.117,2,0,0,2
128.117,2,0,0,4
128.118,5,1,1,4
128.119,6,2,1,5
128.119,6,2,1,5
128.12,5,1,1,5
128.12,5,0,0,4
128.121,5,0,0,6
128.122,8,4,3,6
128.122,8,6,5,6
128.123,8,8,6,4
128.123,4,5,3,2
128.124,2,2,3,1
128.124,0,2,2,0
128.125,0,1,1,1
128.126,3,3,1,1
128.126,3,4,1,0
128.127,2,4,2,1
128.127,2,2,0,0
128.128,1,1,0,0
128.128,1,1,1,0
128.129,1,2,1,1
128.13,2,1,1,2
128.13,2,2,2,3
128.131,4,5,5,4
128.131,6,8,6,4
128.132,5,7,6,3
128.132,4,6,4,0
128.133,3,6,3,0
128.134,0,3,1,-1
128.134,0,2,0,-1
128.135,0,0,0,0
128.135,0,0,0,0
128.136,0,0,0,0
128.136,1,1,1,2
128.137,3,1,1,3
128.138,3,1,0,4
128.138,4,1,0,4
128.139,4,0,0,4
128.139,5,0,1,5
128.14,5,2,4,8
128.14,6,4,5,9
128.141,8,6,4,6
128.142,8,6,4,3
128.142,4,4,4,2
128.143,1,0,1,1
128.143,0,0,0,1
128.144,4,3,1,3
128.144,7,7,3,3
128.145,7,7,3,2
128.146,5,5,1,0
128.146,3,2,0,-1
128.147,0,-3,-4,0
128.147,1,-1,-2,1
128.148,5,5,2,3
128.148,6,6,3,2
128.149,4,6,3,1
128.15,3,4,3,1
128.15,0,1,1,0
128.151,0,1,3,1
128.151,2,6,5,2
128.152,2,6,7,3
128.152,1,5,6,1
128.153,0,3,5,1
128.154,0,0,2,1
128.154,0,1,2,2
128.155,3,2,2,3
128.155,4,3,1,2
128.156,4,3,0,0
128.156,4,3,0,0
128.157,3,1,0,0
128.158,3,0,-1,1
128.158,1,0,0,2
128.159,3,0,1,4
128.159,3,-1,0,5
128.16,3,0,1,6
128.161,4,1,3,7
128.161,5,2,4,8
128.162,8,6,7,8
128.162,7,5,5,5
128.163,4,4,3,4
128.163,5,5,4,3
128.164,4,5,4,1
128.165,2,3,4,1
128.165,0,2,1,0
128.166,-1,0,0,0
128.166,-1,0,1,0
128.167,0,1,1,1
128.167,1,2,2,2
128.168,3,3,2,3
128.169,7,5,3,3
128.169,8,6,1,2
128.17,7,6,0,0
128.17,3,2,0,0
128.171,3,3,1,0
128.171,4,6,3,0
128.172,2,4,2,0
128.173,2,5,2,0
128.173,1,5,2,0
128.174,0,4,3,0
128.174,0,3,2,-1
128.175,-2,0,1,0
128.176,-1,0,0,1
128.176,1,0,2,3
128.177,4,2,3,5
128.177,5,1,1,5
128.178,6,1,1,5
128.178,6,1,1,5
128.179,7,2,1,5
128.18,6,1,0,6
128.18,7,3,0,5
128.181,7,4,2,5
128.181,7,5,3,4
128.182,6,5,2,2
128.182,3,2,2,1
128.183,2,2,2,1
128.183,0,2,3,2
128.184,1,2,3,2
128.185,1,2,2,1
128.185,0,2,2,2
128.186,2,2,2,3
128.186,4,3,2,3
128.187,5,4,2,3
128.188,4,5,2,1
128.188,4,4,1,1
128.189,3,3,0,0
128.189,1,2,0,1
128.19,3,3,1,1
128.19,3,3,1,1
128.191,5,6,5,2
128.192,5,7,4,1
128.192,3,6,4,0
128.193,1,4,2,0
128.193,0,3,2,-1
128.194,0,0,0,-1
128.194,0,0,0,0
128.195,0,0,0,0
128.196,0,1,2,2
128.196,3,3,2,3
128.197,3,2,3,4
128.197,3,1,0,3
128.198,4,1,0,4
128.198,4,1,1,4
128.199,5,1,1,5
128.2,5,1,2,6
128.2,5,2,2,6
128.201,5,2,2,5
128.201,5,4,3,5
128.202,5,4,4,4
128.202,5,4,5,4
128.203,4,6,5,3
128.204,3,5,3,2
128.204,2,3,1,1
128.205,3,3,1,0
128.205,3,3,0,0
128.206,3,4,1,0
128.206,4,5,1,0
128.207,3,3,0,-1
128.208,0,1,0,-1
128.208,0,0,0,0
128.209,1,1,0,1
128.209,1,1,2,4
128.21,4,3,2,3
128.21,3,3,2,4
128.211,5,6,5,6
128.212,7,8,6,4
128.212,5,7,4,2
128.213,3,8,4,0
128.213,1,4,3,0
128.214,0,1,1,-1
128.215,0,1,0,0
128.215,0,0,0,0
128.216,0,0,0,0
128.216,2,0,0,3
128.217,2,1,0,3
128.217,2,0,0,4
128.218,3,0,0,5
128.219,4,0,1,6
128.219,7,2,2,7
128.22,7,2,1,7
128.22,7,3,3,7
128.221,8,5,4,6
128.221,8,6,4,5
128.222,7,7,5,3
128.223,4,4,3,1
128.223,3,3,1,0
128.224,1,1,0,0
128.224,1,2,0,0
128.225,0,1,0,0
128.225,0,2,2,0
128.226,0,1,2,2
128.227,1,2,3,2
128.227,1,2,3,3
128.228,3,3,3,3
128.228,3,3,2,2
128.229,3,3,3,3
128.229,4,2,2,2
128.23,4,2,1,1
128.231,4,5,3,2
128.231,6,8,5,2
128.232,3,5,3,0
128.232,0,3,3,0
128.233,0,2,4,0
128.233,-2,0,3,0
128.234,-3,0,4,3
128.235,0,1,4,4
128.235,2,2,2,4
128.236,4,4,2,3
128.236,6,6,3,5
128.237,8,7,1,2
128.238,7,4,-1,0
128.238,2,0,-4,-1
128.239,0,-2,-4,0
128.239,1,-1,-2,1
128.24,3,0,0,5
128.24,6,2,1,6
128.241,8,4,3,7
128.242,9,7,5,7
128.242,9,7,4,6
128.243,7,6,3,2
128.243,2,2,2,1
128.244,1,1,2,1
128.244,0,0,2,2
128.245,0,0,2,2
128.246,1,1,3,3
128.246,4,4,4,4
128.247,5,5,4,3
128.247,5,5,2,1
128.248,4,3,0,0
128.248,3,2,-1,0
128.249,4,3,0,0
128.25,1,1,0,-1
128.25,0,0,0,0
128.251,1,3,3,2
128.251,4,8,6,4
128.252,4,8,7,3
128.252,3,6,6,1
128.253,2,6,5,1
128.254,1,4,3,-1
128.254,-1,2,3,0
128.255,-1,1,1,0
128.255,0,1,0,1
128.256,2,1,1,1
128.256,2,2,0,1
128.257,2,1,0,1
128.258,4,1,0,2
128.258,3,0,0,3
128.259,4,0,-1,4
128.259,5,0,0,4
128.26,6,2,2,7
128.261,7,4,4,8
128.261,8,3,3,7
128.262,8,3,2,7
128.262,9,7,5,5
128.263,7,8,6,3
128.263,5,7,5,2
128.264,2,4,3,0
128.264,1,2,1,0
128.265,0,0,0,-1
128.266,0,0,-1,-1
128.266,0,1,0,1
128.267,2,2,2,2
128.267,3,2,1,3
128.268,3,1,0,2
128.269,2,1,1,1
128.269,1,2,2,3
128.27,4,4,4,5
128.27,4,4,4,5
128.271,6,6,5,2
128.271,4,6,4,2
128.272,4,6,4,2
128.273,3,6,3,1
128.273,3,5,1,0
128.274,1,2,0,-2
128.274,0,1,0,-1
128.275,0,1,0,-2
128.275,0,2,1,0
128.276,0,3,3,2
128.277,1,2,1,1
128.277,0,-1,-1,0
128.278,0,-4,-2,2
128.278,1,-3,0,5
128.279,5,0,2,8
128.279,7,2,4,9
128.28,8,5,6,9
128.281,8,6,6,8
128.281,7,5,6,7
128.282,7,6,5,5
128.282,5,4,3,4
128.283,4,3,1,0
128.283,2,2,0,0
128.284,2,2,0,0
128.285,2,3,1,0
128.285,1,2,0,0
128.286,1,1,0,0
128.286,2,2,0,0
128.287,2,2,0,1
128.287,3,2,1,1
128.288,2,3,2,2
128.289,4,4,2,2
128.289,3,3,3,3
128.29,3,2,2,2
128.29,3,3,2,2
128.291,4,6,4,3
128.291,6,9,6,4
128.292,5,8,5,0
128.293,2,5,3,0
128.293,1,3,1,-1
128.294,-1,2,0,-2
128.294,-1,0,0,-1
128.295,0,0,0,0
128.295,0,1,0,1
128.296,1,1,1,2
128.297,1,0,2,3
128.297,3,0,2,6
128.298,4,0,2,6
128.298,5,1,1,8
128.299,8,4,2,7
128.299,7,2,1,6
128.3,7,2,2,5
128.301,7,2,1,4
128.301,8,5,2,4
128.302,5,6,4,3
128.302,4,4,3,3
128.303,3,4,3,3
128.304,2,2,1,0
128.304,1,1,0,0
128.305,0,0,0,0
128.305,1,0,0,0
128.306,3,3,1,2
128.306,4,4,2,3
128.307,5,5,2,2
128.308,4,4,1,0
128.308,2,2,1,1
128.309,3,3,2,2
128.309,3,3,2,1
128.31,2,3,2,1
128.31,1,2,3,3
128.311,4,7,5,4
128.312,4,7,6,2
128.312,3,6,4,2
128.313,3,5,1,-1
128.313,1,2,0,-1
128.314,0,1,0,-1
128.314,0,1,1,0
128.315,1,2,1,1
128.316,2,1,1,0
128.316,2,1,1,1
128.317,2,1,1,2
128.317,2,1,0,3
128.318,3,1,1,4
128.318,4,1,0,5
128.319,6,1,1,5
128.32,5,0,1,6
128.32,5,2,2,6
128.321,5,2,3,6
128.321,4,2,4,5
128.322,4,4,5,5
128.323,5,4,5,5
128.323,5,5,6,5
128.324,5,6,4,2
128.324,4,4,2,1
128.325,2,3,0,0
128.325,5,4,0,0
128.326,4,3,-1,-2
128.327,0,0,-1,-2
128.327,0,0,0,-1
128.328,0,1,1,1
128.328,2,1,1,2
128.329,3,2,2,3
128.329,5,4,3,5
128.33,7,7,5,4
128.331,6,7,5,3
128.331,4,8,7,2
128.332,2,5,4,0
128.332,0,3,1,-1
128.333,0,3,0,-1
128.333,-1,1,0,-1
128.334,-1,1,0,0
128.335,0,1,1,0
128.335,0,1,2,1
128.336,1,1,1,3
128.336,3,4,3,4
128.337,4,2,3,5
128.337,4,1,1,4
128.338,5,0,0,4
128.339,5,0,0,5
128.339,5,1,0,5
128.34,6,2,1,5
128.34,6,2,2,6
128.341,6,3,2,5
128.342,7,6,4,5
128.342,6,4,3,3
128.343,3,4,3,3
128.343,2,3,3,2
128.344,3,3,3,2
128.344,1,3,2,2
128.345,2,3,2,1
128.345,1,2,1,0
128.346,1,3,2,0
128.347,1,1,1,0
128.347,0,0,1,0
128.348,0,0,1,1
128.348,1,0,1,3
128.349,3,1,1,4
128.35,5,3,3,5
128.35,5,4,4,6
128.351,6,7,5,4
128.351,6,9,6,3
128.352,4,7,6,1
128.352,2,5,3,0
128.353,2,5,2,0
128.353,0,1,-1,-2
128.354,-1,1,0,-1
128.355,0,2,0,0
128.355,1,2,1,0
128.356,2,3,0,0
128.356,1,2,1,1
128.357,1,1,0,1
128.358,2,0,0,2
128.358,3,0,0,4
128.359,5,0,0,5
128.359,8,2,0,6
128.36,10,4,0,6
128.36,8,3,0,4
128.361,7,4,2,5
128.362,7,5,4,4
128.362,6,6,4,4
128.363,4,5,4,2
128.363,2,3,3,1
128.364,0,0,2,0
128.364,-1,0,2,2
128.365,1,2,3,2
128.366,1,1,2,2
128.366,1,1,2,3
128.367,3,2,2,2
128.367,3,3,2,3
128.368,4,2,1,3
128.368,6,4,1,3
128.369,6,4,0,1
128.37,5,3,0,1
128.37,4,4,1,1
128.371,5,5,3,1
128.371,2,5,3,0
128.372,1,5,4,0
128.372,0,4,4,0
128.373,0,3,4,0
128.374,-1,1,1,0
128.374,-1,0,1,1
128.375,1,2,2,2
128.375,2,2,1,2
128.376,3,1,1,2
128.376,3,1,0,3
128.377,3,1,0,2
128.378,3,1,1,4
128.378,5,1,0,4
128.379,5,1,0,5
128.379,7,2,1,6
128.38,8,4,2,5
128.38,8,5,4,5
128.381,6,4,3,4
128.382,6,4,3,3
128.382,4,3,2,2
128.383,3,2,1,1
128.383,3,2,1,0
128.384,2,2,1,1
128.385,3,4,2,1
128.385,2,4,3,1
128.386,2,2,1,0
128.386,0,1,1,1
128.387,0,1,2,2
128.387,2,3,4,3
128.388,2,3,4,3
128.389,2,3,3,3
128.389,2,3,3,3
128.39,3,3,2,3
128.39,4,1,0,3
128.391,7,4,1,3
128.391,10,12,6,3
128.392,7,10,5,1
128.393,2,5,2,-1
128.393,-1,2,1,-3
128.394,-2,0,0,-2
128.394,-2,0,0,-1
128.395,0,0,0,0
128.395,0,0,0,2
128.396,2,1,1,3
128.397,4,2,2,4
128.397,4,2,0,4
128.398,5,2,1,4
128.398,5,2,1,5
128.399,6,2,1,5
128.4,5,0,1,5
128.4,5,2,1,5
128.401,6,3,2,6
128.401,6,3,3,6
128.402,5,5,4,5
128.402,4,4,3,4
128.403,3,3,3,2
128.403,3,4,3,2
128.404,3,5,3,2
128.405,2,4,2,1
128.405,2,2,1,1
128.406,1,1,0,0
128.406,2,2,0,0
128.407,3,3,1,1
128.407,2,2,1,0
128.408,3,3,2,2
128.409,3,2,1,1
128.409,2,2,1,2
128.41,2,1,1,1
128.41,1,2,2,2
128.411,2,4,5,4
128.411,5,6,7,5
128.412,6,9,7,3
128.413,5,8,5,0
128.413,3,7,3,0
128.414,1,3,0,-3
128.414,-1,1,0,-2
128.415,-1,0,0,-1
128.416,-1,0,0,0
128.416,0,0,1,2
128.417,0,-1,0,4
128.417,2,-1,0,4
128.418,5,0,1,6
128.418,7,2,3,7
128.419,7,3,3,8
128.419,8,4,2,6
128.42,8,4,2,5
128.421,9,5,2,5
128.421,8,5,2,3
128.422,6,5,2,3
128.422,5,4,2,1
128.423,4,3,0,0
128.424,3,3,1,0
128.424,1,2,1,0
128.425,2,2,1,0
128.425,0,2,1,1
128.426,1,2,1,0
128.426,1,1,1,1
128.427,1,2,2,2
128.428,1,1,3,3
128.428,2,2,4,4
128.429,4,4,5,4
128.429,4,2,2,2
128.43,3,3,2,3
128.43,5,4,3,3
128.431,5,7,4,3
128.432,5,6,3,0
128.432,3,4,0,0
128.433,2,2,1,0
128.433,0,1,1,0
128.434,0,0,1,1
128.434,1,2,2,1
128.435,1,2,2,0
128.436,2,3,3,1
128.436,3,5,5,2
128.437,1,3,4,3
128.437,1,0,0,2
128.438,2,-1,-1,3
128.438,4,0,0,4
128.439,6,2,0,5
128.44,7,2,1,5
128.44,8,3,1,4
128.441,5,2,1,4
128.441,5,3,2,5
128.442,6,5,3,4
128.443,6,5,3,3
128.443,5,4,2,2
128.444,3,3,2,1
128.444,2,3,2,1
128.445,2,1,0,0
128.445,1,1,1,0
128.446,1,2,3,2
128.446,2,2,2,1
128.447,1,1,2,2
128.448,2,2,2,2
128.448,2,1,1,3
128.449,4,3,2,3
128.449,4,5,3,3
128.45,5,4,3,2
128.451,3,4,2,1
128.451,3,7,6,2
128.452,4,8,7,2
128.452,3,6,4,0
128.453,1,6,5,0
128.453,-1,1,0,-2
128.454,-2,0,-1,-2
128.455,-1,0,0,0
128.455,1,1,0,1
128.456,1,1,1,2
128.456,3,1,1,3
128.457,4,2,1,3
128.457,4,2,0,4
128.458,6,3,1,5
128.459,6,2,0,4
128.459,6,1,0,4
128.46,5,1,0,4
128.46,6,1,0,5
128.461,5,2,2,5
128.461,6,5,4,5
128.462,6,5,5,5
128.463,4,4,4,3
128.463,2,3,4,2
128.464,1,2,4,3
128.464,2,3,2,2
128.465,1,1,2,2
128.465,2,1,1,1
128.466,1,1,2,2
128.467,2,2,2,2
128.467,4,3,1,3
128.468,7,5,1,2
128.468,6,5,1,1
128.469,5,3,0,0
128.47,2,2,0,0
128.47,2,1,0,1
128.471,3,4,2,2
128.471,4,6,5,2
128.472,4,7,6,2
128.472,3,6,4,0
128.473,2,6,2,-1
128.474,0,3,1,-2
128.474,-1,1,0,0
128.475,0,1,0,0
128.475,0,0,0,1
128.476,2,1,1,2
128.476,4,3,1,3
128.477,4,2,1,3
128.478,4,1,0,3
128.478,3,1,0,4
128.479,3,0,0,4
128.479,3,0,0,3
128.48,5,2,2,7
128.48,6,3,4,8
128.481,7,5,4,6
128.482,6,5,4,5
128.482,5,5,4,4
128.483,5,3,3,3
128.483,4,5,2,3
128.484,4,3,1,1
128.484,2,1,0,0
128.485,2,3,1,1
128.486,3,4,2,0
128.486,3,3,2,0
128.487,0,2,0,0
128.487,0,0,1,0
128.488,0,0,1,1
128.488,1,1,1,2
128.489,2,2,3,4
128.49,4,3,3,4
128.49,5,4,3,4
128.491,5,5,5,4
128.491,5,7,6,3
128.492,3,7,6,2
128.492,2,4,3,0
128.493,1,4,3,0
128.494,1,3,1,0
128.494,0,2,0,-1
128.495,1,1,0,-1
128.495,1,1,0,0
128.496,2,2,0,1
128.496,2,1,0,1
128.497,2,1,0,1
128.498,3,0,0,2
128.498,3,0,0,5
128.499,5,0,0,5
128.499,6,0,1,6
128.5,6,3,3,6
128.501,6,4,4,7
128.501,7,5,6,7
128.502,7,7,7,6
128.502,4,5,5,3
128.503,3,2,2,2
128.503,2,2,0,1
128.504,3,3,1,1
128.505,3,3,2,1
128.505,2,2,0,0
128.506,1,2,1,0
128.506,1,0,0,0
128.507,0,-2,-2,0
128.507,3,3,2,3
128.508,6,6,4,5
128.509,7,6,4,4
128.509,6,6,1,0
128.51,3,2,0,0
128.51,0,1,0,0
128.511,2,4,3,1
128.511,2,6,4,1
128.512,2,6,5,2
128.513,2,5,5,0
128.513,1,3,3,0
128.514,0,2,1,0
128.514,-2,0,0,0
128.515,0,2,1,1
128.515,2,2,2,3
128.516,4,3,1,3
128.517,4,1,0,1
128.517,2,0,0,2
128.518,2,0,0,3
128.518,3,-1,0,5
128.519,3,-1,0,5
128.52,4,0,0,6
128.52,6,2,4,8
128.521,9,6,6,8
128.521,10,8,5,7
128.522,10,8,4,4
128.522,6,6,2,1
128.523,2,3,2,0
128.523,0,2,1,-1
128.524,-1,1,1,0
128.525,-1,0,0,0
128.525,-1,0,1,2
128.526,0,0,2,2
128.526,2,2,3,4
128.527,3,3,3,5
128.528,6,4,2,5
128.528,10,8,3,4
128.529,9,7,0,0
128.529,5,3,-2,-1
128.53,2,0,-3,-1
128.53,2,2,0,0
128.531,3,5,3,0
128.531,3,7,6,2
128.532,2,6,5,0
128.533,1,4,4,0
128.533,0,3,2,-1
128.534,0,1,1,0
128.534,0,1,1,0
128.535,0,1,0,1
128.536,2,2,1,2
128.536,2,2,1,3
128.537,2,1,1,3
128.537,3,1,1,4
128.538,4,1,1,5
128.538,6,2,1,6
128.539,6,1,1,5
128.54,6,1,0,5
128.54,5,1,2,6
128.541,7,4,3,5
128.541,7,5,4,5
128.542,6,5,4,3
128.542,4,3,3,1
128.543,2,3,2,2
128.544,2,3,2,1
128.544,2,3,2,0
128.545,1,3,3,1
128.545,2,3,1,0
128.546,0,1,1,0
128.546,0,0,1,1
128.547,1,2,3,3
128.548,3,2,1,1
128.548,3,3,3,3
128.549,4,3,2,3
128.549,5,3,1,2
128.55,3,3,1,2
128.551,3,3,1,2
128.551,4,5,4,3
128.552,4,7,5,2
128.552,3,5,4,1
128.553,3,5,3,0
128.553,1,3,1,-1
128.554,0,2,0,-1
128.555,0,0,0,-1
128.555,0,0,0,0
128.556,1,0,0,1
128.556,2,3,2,2
128.557,2,2,2,4
128.557,4,2,2,4
128.558,3,0,1,5
128.559,4,0,0,5
128.559,5,0,1,6
128.56,7,3,2,6
128.56,7,3,3,6
128.561,6,4,3,5
128.561,6,3,2,5
128.562,5,5,2,3
128.563,4,5,3,3
128.563,4,4,4,2
128.564,2,3,3,1
128.564,1,2,2,1
128.565,1,1,0,0
128.565,0,1,0,0
128.566,2,2,1,1
128.567,2,3,2,1
128.567,2,3,1,1
128.568,3,3,1,1
128.568,3,3,0,2
128.569,3,2,0,1
128.569,4,2,2,3
128.57,4,3,2,3
128.571,4,4,3,2
128.571,5,7,6,3
128.572,4,8,5,2
128.572,1,4,4,0
128.573,0,4,4,0
128.573,0,2,1,-1
128.574,-1,1,1,0
128.575,0,1,1,1
128.575,0,2,2,1
128.576,2,1,1,2
128.576,2,2,2,3
128.577,4,2,2,2
128.577,3,1,0,2
128.578,4,0,0,3
128.579,5,1,0,3
128.579,6,1,0,4
128.58,7,3,0,4
128.58,7,4,2,5
128.581,5,3,1,4
128.581,7,5,4,4
128.582,6,4,3,3
128.583,4,3,2,2
128.583,4,4,3,1
128.584,2,2,1,2
128.584,2,0,0,1
128.585,1,1,0,2
128.585,4,3,2,2
128.586,4,4,3,2
128.587,3,5,5,2
128.587,0,1,2,0
128.588,0,1,2,1
128.588,0,1,1,1
128.589,2,1,0,3
128.589,3,1,0,3
128.59,4,3,2,4
128.591,6,5,4,5
128.591,6,8,6,3
128.592,5,8,6,2
128.592,3,6,4,0
128.593,2,5,3,0
128.593,0,2,0,-2
128.594,-2,0,0,-1
128.595,0,0,0,-1
128.595,0,0,1,1
128.596,1,1,1,2
128.596,3,2,2,3
128.597,2,1,1,2
128.598,3,0,0,4
128.598,5,1,2,5
128.599,7,2,1,6
128.599,6,2,1,5
128.6,6,2,0,4
128.6,8,3,1,4
128.601,7,4,2,5
128.602,7,6,4,4
128.602,6,5,3,2
128.603,4,4,2,1
128.603,3,3,1,0
128.604,2,3,0,0
128.604,2,3,1,0
128.605,1,2,0,0
128.606,1,2,1,0
128.606,1,3,1,1
128.607,2,2,1,2
128.607,2,2,2,1
128.608,1,1,2,2
128.608,2,2,2,4
128.609,4,3,2,3
128.61,3,2,2,3
128.61,4,4,4,4
128.611,5,5,5,3
128.611,4,6,5,2
128.612,3,5,5,1
128.612,1,3,3,0
128.613,0,3,4,0
128.614,0,2,2,0
128.614,0,2,1,0
128.615,2,3,0,0
128.615,2,2,0,1
128.616,2,0,-1,1
128.617,2,0,-1,1
128.617,1,0,-1,2
128.618,3,0,0,3
128.618,4,1,2,6
128.619,5,3,3,6
128.619,7,4,3,7
128.62,9,6,4,5
128.621,8,7,4,4
128.621,2,2,3,3
128.622,1,0,1,3
128.622,2,0,1,4
128.623,4,3,3,4
128.623,4,6,5,3
128.624,4,6,4,3
128.625,4,4,3,2
128.625,4,3,0,0
128.626,2,1,0,0
128.626,1,0,0,0
128.627,2,1,0,0
128.627,2,2,1,2
128.628,3,3,1,1
128.629,3,2,2,3
128.629,4,3,1,1
128.63,2,2,2,2
128.63,3,4,4,4
128.631,4,7,5,3
128.631,4,6,5,2
128.632,2,4,4,2
128.633,2,5,4,1
128.633,2,4,3,0
128.634,1,4,1,0
128.634,0,1,0,0
128.635,0,0,0,-1
128.635,0,0,0,0
128.636,0,0,2,3
128.637,2,1,2,3
128.637,2,0,0,4
128.638,2,0,0,5
128.638,5,0,1,6
128.639,7,2,2,7
128.639,8,4,2,6
128.64,8,6,3,6
128.641,7,4,2,4
128.641,6,5,3,4
128.642,6,5,2,2
128.642,4,4,1,1
128.643,1,0,-1,0
128.644,1,0,0,1
128.644,1,2,3,2
128.645,2,3,4,2
128.645,1,3,3,3
128.646,3,3,3,3
128.646,4,4,2,1
128.647,3,3,1,1
128.648,3,2,0,0
128.648,2,0,0,0
128.649,2,2,0,1
128.649,3,3,1,3
128.65,4,2,1,1
128.65,3,3,2,2
128.651,5,7,5,4
128.652,6,9,7,3
128.652,5,8,6,0
128.653,2,4,3,0
128.653,0,3,0,-2
128.654,-2,0,0,-2
128.654,-1,0,0,0
128.655,0,1,1,1
128.656,0,0,1,2
128.656,2,1,2,2
128.657,2,0,0,4
128.657,4,1,0,4
128.658,5,0,0,4
128.658,3,0,0,4
128.659,5,0,1,6
128.66,6,2,3,7
128.66,8,5,4,7
128.661,8,5,3,6
128.661,7,5,3,4
128.662,7,6,3,2
128.662,3,3,2,1
128.663,2,2,3,2
128.664,0,2,2,1
128.664,1,2,2,2
128.665,1,1,1,0
128.665,2,2,1,1
128.666,1,2,2,2
128.666,2,2,2,2
128.667,2,2,1,1
128.668,2,2,2,3
128.668,3,3,2,2
128.669,3,3,2,2
128.669,3,2,2,3
128.67,4,4,2,2
128.671,4,4,3,3
128.671,5,7,5,3
128.672,4,7,4,1
128.672,3,5,4,0
128.673,2,4,3,0
128.673,1,3,0,0
128.674,0,1,-1,-2
128.675,0,0,0,0
128.675,0,0,0,0
128.676,0,0,1,2
128.676,2,1,1,3
128.677,2,1,1,3
128.677,4,1,1,4
128.678,4,0,1,5
128.678,6,2,2,6
128.679,8,4,2,6
128.68,8,3,0,4
128.68,7,3,1,4
128.681,7,4,1,4
128.681,6,5,3,3
128.682,3,4,2,2
128.683,2,3,2,1
128.683,2,3,2,1
128.684,2,3,3,1
128.684,1,1,0,1
128.685,2,0,0,2
128.685,3,2,0,3
128.686,6,3,0,2
128.687,7,5,1,3
128.687,7,5,0,0
128.688,3,4,1,0
128.688,0,1,0,0
128.689,0,1,1,1
128.689,1,2,2,2
128.69,2,2,2,3
128.691,4,5,5,3
128.691,3,7,8,2
128.692,1,6,6,2
128.692,0,5,4,0
128.693,0,6,5,1
128.693,2,6,5,1
128.694,1,4,2,0
128.695,0,0,-1,0
128.695,0,-2,-3,-1
128.696,1,0,-1,1
128.696,3,2,0,3
128.697,5,2,1,4
128.698,4,1,0,4
128.698,4,0,0,3
128.699,4,0,0,3
128.699,2,0,1,5
128.7,3,1,3,6
128.7,5,3,5,7
128.701,5,4,6,8
128.702,5,6,8,8
128.702,6,5,5,5
128.703,5,4,3,4
128.703,4,3,2,2
128.704,4,3,1,1
128.704,4,2,0,1
128.705,3,3,0,0
128.706,3,4,1,0
128.706,3,3,0,0
128.707,1,2,0,0
128.707,0,0,0,-1
128.708,0,1,0,1
128.708,2,1,2,2
128.709,3,2,3,4
128.71,5,4,3,3
128.71,5,4,3,3
128.711,4,5,4,2
128.711,3,6,6,2
128.712,3,6,6,2
128.712,2,4,4,1
128.713,2,4,4,0
128.714,0,2,1,0
128.714,0,3,2,0
128.715,1,3,2,0
128.715,1,2,1,1
128.716,2,1,0,0
128.716,2,1,0,1
128.717,1,0,-1,1
128.718,2,-1,-1,3
128.718,4,1,0,4
128.719,5,2,0,6
128.719,7,2,1,6
128.72,7,3,2,6
128.72,6,2,2,5
128.721,6,4,4,6
128.722,7,6,5,5
128.722,5,4,3,3
128.723,4,4,4,3
128.723,3,3,3,1
128.724,1,2,2,2
128.724,2,2,2,2
128.725,2,3,1,1
128.726,4,3,1,2
128.726,4,4,0,0
128.727,3,3,0,0
128.727,2,1,0,0
128.728,1,1,0,0
128.728,3,3,1,0
128.729,3,4,3,2
128.73,2,2,2,2
128.73,2,3,3,1
128.731,2,5,5,3
128.731,3,6,6,4
128.732,2,5,5,2
128.732,3,6,5,2
128.733,3,6,5,0
128.734,0,2,2,0
128.734,0,1,1,0
128.735,0,2,2,1
128.735,1,2,2,1
128.736,2,2,1,1
128.736,1,1,1,1
128.737,0,-4,-2,1
128.738,0,-4,-2,3
128.738,4,0,0,6
128.739,7,2,1,6
128.739,9,5,2,7
128.74,10,5,3,6
128.74,9,4,2,6
128.741,8,5,3,4
128.742,6,6,3,3
128.742,3,4,3,2
128.743,1,2,3,2
128.743,2,2,2,1
128.744,0,1,2,1
128.745,1,2,2,2
128.745,3,2,2,2
128.746,2,2,1,1
128.746,1,0,0,1
128.747,3,1,1,2
128.747,6,6,4,2
128.748,5,5,3,3
128.749,5,6,2,1
128.749,3,2,0,1
128.75,1,1,0,0
128.75,0,0,0,0
128.751,1,4,5,3
128.751,4,8,8,3
128.752,4,7,7,3
128.753,2,5,4,0
128.753,0,2,2,0
128.754,-1,1,0,0
128.754,0,1,1,0
128.755,2,2,1,1
128.755,2,1,0,1
128.756,2,0,0,2
128.757,3,1,0,3
128.757,4,1,1,4
128.758,5,1,1,4
128.758,4,1,0,5
128.759,6,1,0,5
128.759,6,1,0,5
128.76,7,4,3,6
128.761,7,5,2,5
128.761,7,4,2,4
128.762,3,1,1,2
128.762,2,0,1,2
128.763,3,2,3,4
128.763,4,4,3,3
128.764,4,4,3,2
128.765,4,4,3,2
128.765,3,4,1,0
128.766,2,4,2,0
128.766,2,4,2,0
128.767,2,3,1,0
128.767,1,1,0,0
128.768,0,0,1,0
128.769,1,1,0,1
128.769,1,1,1,2
128.77,2,2,2,3
128.77,4,4,4,4
128.771,6,7,6,4
128.772,6,8,7,3
128.772,3,6,5,1
128.773,1,4,4,0
128.773,0,3,2,0
128.774,0,1,1,-1
128.774,-1,0,0,0
128.775,0,0,1,2
128.776,2,1,2,3
128.776,5,4,2,4
128.777,7,4,0,3
128.777,8,3,-2,1
128.778,6,2,-2,0
128.778,4,0,-3,1
128.779,3,0,-2,2
128.78,2,0,0,3
128.78,4,1,1,5
128.781,6,4,3,6
128.781,8,6,6,7
128.782,8,7,5,6
128.782,6,5,4,4
128.783,5,4,2,1
128.784,2,3,2,1
128.784,2,2,1,0
128.785,0,1,1,0
128.785,0,1,1,0
128.786,0,0,1,1
128.787,2,2,2,2
128.787,2,1,2,3
128.788,5,4,3,4
128.788,5,4,2,3
128.789,5,3,1,1
128.789,3,2,0,1
128.79,3,2,0,2
128.79,4,3,1,1
128.791,4,7,4,1
128.792,3,7,6,2
128.792,2,4,4,0
128.793,2,6,4,1
128.793,1,3,2,0
128.794,0,1,0,-1
128.794,-1,0,0,0
128.795,0,0,1,1
128.796,1,1,2,1
128.796,2,1,3,2
128.797,1,0,1,3
128.797,1,0,0,4
128.798,3,0,1,5
128.799,6,1,1,6
128.799,8,4,2,7
128.8,8,4,1,6
128.8,7,4,2,5
128.801,6,4,1,4
128.801,6,5,3,4
128.802,6,6,3,3
128.803,4,5,4,1
128.803,3,3,2,0
128.804,2,3,1,0
128.804,1,2,1,0
128.805,1,1,0,0
128.805,2,3,1,1
128.806,3,4,1,1
128.807,3,3,1,1
128.807,1,2,1,0
128.808,0,0,1,1
128.808,1,1,2,3
128.809,3,2,1,4
128.809,5,4,3,4
128.81,4,3,2,3
128.811,4,4,3,3
128.811,5,6,4,3
128.812,5,5,3,2
128.812,4,4,2,1
128.813,3,3,2,1
128.813,1,3,2,0
128.814,0,1,0,0
128.815,0,1,1,0
128.815,0,1,2,2
128.816,1,3,3,2
128.816,1,2,2,2
128.817,2,1,1,3
128.818,2,0,0,3
128.818,4,0,-1,4
128.819,4,1,0,5
128.819,5,1,1,5
128.82,5,2,3,7
128.82,7,6,4,7
128.821,7,5,4,5
128.822,6,6,3,3
128.822,4,4,2,2
128.823,4,4,3,2
128.823,3,3,2,2
128.824,2,3,2,0
128.824,1,3,2,0
128.825,0,1,1,0
128.826,1,1,1,1
128.826,2,2,0,1
128.827,3,3,1,1
128.827,3,3,2,2
128.828,3,3,2,2
128.828,3,3,2,2
128.829,2,2,2,2
128.83,3,2,1,1
128.83,3,3,2,3
128.831,5,5,4,2
128.831,4,5,4,2
128.832,2,5,4,1
128.832,0,2,3,1
128.833,1,4,5,1
128.834,1,3,3,0
128.834,0,2,2,0
128.835,2,3,1,0
128.835,1,2,2,1
128.836,3,3,1,1
128.836,3,2,0,0
128.837,3,1,0,0
128.838,4,1,0,2
128.838,4,1,-1,2
128.839,4,0,-1,3
128.839,4,0,0,3
128.84,6,2,1,6
128.84,6,3,4,6
128.841,8,5,4,6
128.842,7,6,5,5
128.842,5,5,3,3
128.843,3,3,3,2
128.843,2,3,3,2
128.844,3,3,1,2
128.844,4,2,1,1
128.845,3,3,0,1
128.846,3,3,1,0
128.846,2,3,1,0
128.847,0,1,2,1
128.847,2,3,2,1
128.848,1,2,2,1
128.848,1,2,2,1
128.849,1,0,1,2
128.85,1,1,2,3
128.85,4,3,3,4
128.851,6,7,6,5
128.851,7,9,7,4
128.852,4,6,4,2
128.852,1,4,2,0
128.853,0,2,2,0
128.854,0,1,0,-1
128.854,-1,1,1,0
128.855,0,1,0,0
128.855,0,0,0,1
128.856,1,1,1,2
128.856,1,1,1,2
128.857,1,0,1,4
128.858,2,0,2,5
128.858,4,0,2,6
128.859,5,0,2,7
128.859,7,2,2,7
128.86,8,3,2,7
128.861,7,3,2,7
128.861,10,5,3,6
128.862,12,9,3,4
128.862,10,7,0,0
128.863,4,5,0,-1
128.863,2,3,0,-1
128.864,1,2,0,-2
128.865,0,2,0,-2
128.865,0,2,0,-1
128.866,1,4,3,1
128.866,1,3,3,1
128.867,0,2,2,0
128.867,0,0,1,0
128.868,0,1,2,2
128.869,1,1,4,5
128.869,4,4,4,6
128.87,5,4,3,5
128.87,5,4,2,2
128.871,5,5,4,3
128.872,5,6,5,3
128.872,5,6,4,2
128.873,4,5,3,0
128.873,3,3,0,-1
128.874,1,2,-1,-2
128.874,1,1,0,-1
128.875,0,1,-1,0
128.875,1,0,0,1
128.876,2,1,0,2
128.877,2,2,1,2
128.877,2,1,1,3
128.878,3,0,0,5
128.878,5,1,1,5
128.879,5,2,2,6
128.879,6,2,2,5
128.88,6,3,4,6
128.881,7,4,3,5
128.881,5,3,3,3
128.882,3,3,4,3
128.882,2,2,3,3
128.883,3,4,5,4
128.883,3,4,3,2
128.884,1,2,2,2
128.885,3,2,2,2
128.885,3,2,1,2
128.886,4,3,0,1
128.886,5,4,0,0
128.887,3,3,0,0
128.888,1,1,0,0
128.888,0,1,0,0
128.889,0,1,1,1
128.889,1,2,2,2
128.89,1,1,3,4
128.89,3,4,5,6
128.891,6,7,8,5
128.892,5,8,7,2
128.892,2,6,5,1
128.893,0,5,6,1
128.893,0,3,2,0
128.894,0,1,0,0
128.894,0,0,-2,0
128.895,1,0,-2,0
128.896,4,1,-1,2
128.896,5,3,0,2
128.897,3,1,0,2
128.897,2,0,0,3
128.898,4,0,0,5
128.898,5,2,1,6
128.899,5,2,1,5
128.9,6,1,1,5
128.9,5,1,1,5
128.901,5,3,2,5
128.901,6,4,4,6
128.902,7,6,5,5
128.903,6,6,4,3
128.903,4,5,3,2
128.904,3,5,2,1
128.904,2,5,2,0
128.905,2,3,2,0
128.905,0,2,0,-1
128.906,0,2,1,0
128.907,0,1,2,1
128.907,1,2,2,1
128.908,1,2,1,1
128.908,2,2,1,1
128.909,1,0,0,2
128.909,1,-3,-2,3
128.91,6,3,1,6
128.911,10,9,6,6
128.911,10,13,9,5
128.912,7,9,6,2
128.912,3,5,2,-1
128.913,-1,3,1,-2
128.913,-3,-1,-1,-2
128.914,-2,0,0,0
128.915,0,0,1,1
128.915,2,3,2,2
128.916,3,2,1,2
128.916,3,2,1,2
128.917,2,1,0,1
128.917,4,1,1,4
128.918,6,2,1,4
128.919,6,2,0,4
128.919,4,0,-1,2
128.92,3,0,0,4
128.92,4,3,3,7
128.921,7,5,5,6
128.921,8,7,6,6
128.922,6,6,5,4
128.923,5,5,3,4
128.923,4,4,1,0
128.924,2,3,0,0
128.924,1,1,0,0
128.925,0,0,0,0
128.925,0,2,2,1
128.926,2,3,2,1
128.927,2,3,2,1
128.927,2,2,1,1
128.928,2,3,3,2
128.928,3,3,3,3
128.929,3,3,3,3
128.929,3,3,2,2
128.93,2,2,2,2
128.931,3,5,4,2
128.931,4,7,6,2
128.932,3,6,6,3
128.932,3,3,2,0
128.933,1,3,2,0
128.933,1,2,1,0
128.934,0,2,1,0
128.935,1,1,0,1
128.935,1,2,2,1
128.936,1,2,1,1
128.936,1,1,1,3
128.937,3,1,1,2
128.937,3,0,0,3
128.938,3,0,0,4
128.939,4,1,1,5
128.939,6,2,2,5
128.94,6,2,2,5
128.94,5,3,3,6
128.941,5,4,4,6
128.941,7,6,4,6
128.942,7,6,3,4
128.943,7,5,2,2
128.943,5,5,1,1
128.944,2,1,0,0
128.944,0,1,0,0
128.945,1,2,1,0
128.946,1,1,0,0
128.946,0,0,0,1
128.947,2,2,2,2
128.947,2,2,1,1
128.948,2,2,2,2
128.948,3,4,3,2
128.949,3,3,3,3
128.95,4,5,3,3
128.95,3,2,2,2
128.951,3,3,2,3
128.951,5,6,4,3
128.952,5,8,5,2
128.952,3,6,4,1
128.953,2,4,3,0
128.954,0,2,1,-2
128.954,0,1,0,-1
128.955,-1,0,0,0
128.955,0,1,0,1
128.956,1,2,1,2
128.956,1,0,1,0
128.957,0,-1,0,2
128.958,0,-3,0,5
128.958,3,0,2,8
128.959,8,2,3,9
128.959,11,5,2,8
128.96,11,6,2,6
128.961,9,5,2,5
128.961,7,4,3,4
128.962,7,5,2,4
128.962,5,3,1,1
128.963,2,3,1,0
128.963,0,0,1,0
128.964,-1,0,1,0
128.965,-2,-1,2,2
128.965,0,0,4,5
128.966,4,4,6,6
128.966,6,6,5,6
128.967,7,6,3,5
128.967,7,5,1,3
128.968,8,7,0,0
128.969,9,7,-1,-3
128.969,3,3,-3,-4
128.97,0,0,-3,-3
128.97,0,0,-1,-2
128.971,0,2,3,0
128.971,3,6,5,2
128.972,3,7,5,2
128.973,3,7,5,2
128.973,1,4,5,1
128.974,0,3,2,0
128.974,0,2,2,0
128.975,0,1,3,2
128.975,1,1,2,2
128.976,2,0,1,2
128.977,2,0,0,2
128.977,2,0,-1,3
128.978,3,0,-1,5
128.978,7,1,1,6
128.979,8,3,1,6
128.979,8,4,2,6
128.98,7,3,1,4
128.981,5,2,3,5
128.981,5,4,4,6
128.982,5,5,5,4
128.982,3,2,3,3
128.983,2,4,4,3
128.983,2,3,3,2
128.984,1,3,2,1
128.985,2,2,1,0
128.985,2,3,1,1
128.986,3,2,0,0
128.986,2,3,1,1
128.987,2,2,0,1
128.988,2,2,1,2
128.988,4,3,1,2
128.989,4,4,1,1
128.989,3,3,1,0
128.99,3,3,3,2
128.99,3,3,3,3
128.991,5,7,5,3
128.991,4,6,5,2
128.992,2,4,5,1
128.993,1,4,3,0
128.993,0,3,2,0
128.994,0,1,1,0
128.994,0,0,0,0
128.995,1,2,2,2
128.995,2,2,2,1
128.996,2,2,1,2
128.997,2,0,0,2
128.997,2,0,0,2
128.998,2,0,0,3
128.998,2,0,2,6
128.999,5,1,2,6
128.999,7,2,2,7
129,9,4,2,7
129.001,9,5,4,6
129.001,8,7,4,5
129.002,7,6,3,2
129.002,3,2,1,0
129.003,2,2,2,1
129.004,1,2,1,0
129.004,1,2,1,0
129.005,0,0,1,0
129.005,0,0,0,1
129.006,1,2,2,2
129.006,3,4,3,3
129.007,4,4,3,4
129.008,5,4,2,2
129.008,4,3,1,2
129.009,5,3,0,1
129.009,5,4,1,1
129.01,5,3,0,0
129.01,3,3,1,0
129.011,3,5,3,1
129.012,2,5,4,1
129.012,0,3,4,0
129.013,0,3,4,0
129.013,0,2,3,1
129.014,0,2,2,0
129.014,0,0,2,2
129.015,1,2,2,2
129.016,3,3,2,3
129.016,6,5,2,4
129.017,6,4,0,2
129.017,4,2,0,1
129.018,3,0,-3,0
129.018,1,-3,-4,1
129.019,3,-2,-2,3
129.02,5,0,1,6
129.02,8,4,4,8
129.021,8,5,4,7
129.021,9,7,6,6
129.022,7,6,5,3
129.022,3,4,4,2
129.023,2,3,3,3
129.024,1,3,4,2
129.024,1,2,2,1
129.025,1,1,3,2
129.025,0,1,1,1
129.026,2,3,2,1
129.026,4,6,3,2
129.027,5,7,3,0
129.028,4,4,0,-1
129.028,2,2,-1,0
129.029,2,3,0,-1
129.029,1,1,0,-1
129.03,0,0,0,0
129.03,1,2,3,3
129.031,3,4,5,6
129.032,7,7,6,4
129.032,5,5,5,2
129.033,1,3,4,2
129.033,3,5,3,2
129.034,5,6,2,0
129.035,0,1,0,-1
129.035,0,-1,-3,-2
129.036,-1,-1,-1,-1
129.036,0,0,1,2
129.037,2,0,2,4
129.039,3,0,2,4
129.039,2,-1,1,5
129.039,2,0,5,10
129.039,8,6,6,10
129.04,11,8,5,7
129.04,8,5,5,5
129.041,6,3,2,3
129.041,6,6,3,3
129.042,7,5,0,0
129.043,7,5,0,-1
129.043,4,5,0,-1
129.044,2,4,0,-2
129.044,0,1,0,-2
129.045,-4,-3,-2,-2
129.046,-3,-1,0,0
129.046,0,2,5,6
129.047,5,3,4,6
129.047,6,2,1,5
129.048,7,2,1,4
129.048,7,5,1,3
129.049,7,6,3,1
129.05,2,3,3,3
129.05,1,0,1,3
129.051,3,2,2,2
129.051,5,6,4,1
129.052,4,6,4,1
129.052,5,7,2,0
129.053,4,4,-3,-4
129.054,1,0,-8,-7
129.054,1,2,-3,-3
129.055,6,10,8,8
129.055,13,16,15,12
129.056,9,9,11,7
129.056,0,0,4,2
129.057,-3,-3,1,0
129.058,-6,-5,1,2
129.058,-4,-6,0,4
129.059,0,-5,-3,0
129.059,-3,-8,-7,-3
129.06,-5,-5,-4,-5
129.06,-4,-1,2,0
129.061,-1,3,6,5
129.062,5,9,12,11
129.062,12,13,12,13
129.063,17,14,9,11
129.063,17,10,-1,2
129.064,15,8,-5,0
129.064,15,10,-3,1
129.065,15,9,-1,3
129.066,12,6,-2,0
129.066,5,0,-7,-7
129.067,-5,-8,-9,-9
129.067,-8,-8,-5,-3
129.068,-4,-5,-4,-1
129.068,-2,-4,-5,-2
129.069,1,-1,-5,0
129.07,7,4,-5,1
129.07,16,16,4,7
129.071,25,28,11,7
129.071,20,23,9,0
129.072,7,16,15,5
129.072,2,15,25,13
129.073,0,12,26,14
129.074,-2,2,16,5
129.074,-16,-14,2,-2
129.075,-25,-26,-6,-3
129.075,-24,-31,-14,-4
129.076,-19,-27,-13,1
129.076,-1,-8,0,13
129.077,16,8,5,11
129.078,18,14,7,7
129.078,11,9,6,5
129.079,7,4,-2,-3
129.079,6,10,-3,-7
129.08,4,9,-3,-7
129.08,6,11,0,-3
129.081,6,8,-3,-6
129.082,3,8,3,4
129.082,11,15,16,19
129.083,21,21,22,18
129.083,13,13,12,5
129.084,1,4,5,-1
129.085,-4,-3,-2,-5
129.085,-9,-14,-14,-12
129.086,-14,-20,-18,-10
129.086,-6,-6,-1,5
129.087,6,5,12,16
129.087,12,10,14,11
129.088,4,2,5,6
129.089,0,-4,1,6
129.089,2,-2,3,9
129.09,6,1,4,6
129.09,1,-2,-1,-1
129.091,-2,-2,-5,-5
129.091,0,1,-5,-5
129.092,4,8,2,0
129.093,8,14,9,4
129.093,7,8,4,7
129.094,8,1,-2,4
129.094,8,-4,-14,-1
129.095,15,12,0,3
129.095,20,22,9,2
129.096,8,12,4,0
129.097,1,5,5,4
129.097,5,15,24,17
129.098,6,14,30,19
129.098,-3,2,24,13
129.099,-18,-15,12,4
129.099,-30,-29,2,5
129.1,-24,-28,-1,2
129.101,-18,-23,-9,-6
129.101,-19,-21,-9,-4
129.102,-11,-11,-4,2
129.102,3,3,5,10
129.103,15,13,6,6
129.104,16,17,6,5
129.104,15,16,4,4
129.105,15,17,7,5
129.105,14,13,2,1
129.106,11,8,-1,-3
129.106,4,6,2,-1
129.107,0,2,1,-3
129.107,-3,2,1,-3
129.108,0,2,-7,-12
129.109,0,2,-15,-16
129.109,5,11,-4,-4
129.11,13,11,-5,0
129.11,18,14,-5,0
129.111,21,17,-3,1
129.112,20,20,5,6
129.112,18,19,11,8
129.113,11,12,9,8
129.113,9,16,21,17
129.114,9,10,17,14
129.114,1,-1,5,5
129.115,-8,-16,-8,-4
129.116,-13,-22,-15,-6
129.116,-12,-22,-19,-7
129.117,-9,-20,-17,-4
129.117,-7,-17,-12,-4
129.118,-10,-17,-7,2
129.118,-2,-5,4,10
129.119,5,5,17,20
129.12,8,8,22,25
129.12,17,17,21,19
129.121,17,21,19,9
129.121,11,23,21,7
129.122,8,12,3,0
129.122,7,5,-4,-1
129.123,5,6,6,6
129.124,1,0,4,0
129.124,-8,-6,0,-2
129.125,-12,-8,0,0
129.125,-6,-7,-4,-6
129.126,-8,-9,-11,-11
129.126,-7,-7,-12,-10
129.127,-3,-2,-8,-7
129.128,3,6,-1,0
129.128,15,18,4,2
129.129,14,15,0,-2
129.129,9,7,-10,-6
129.13,15,11,-12,-6
129.13,23,27,9,11
129.131,31,36,27,24
129.132,29,29,21,16
129.132,16,16,11,5
129.133,3,4,5,0
129.133,-5,-5,-3,-6
129.134,-8,-5,0,-5
129.135,-16,-14,-2,-6
129.135,-24,-22,-2,0
129.136,-20,-18,5,6
129.136,-15,-15,9,8
129.137,-15,-15,6,8
129.137,-10,-14,-1,4
129.138,-3,-11,-7,3
129.139,5,-6,-10,4
129.139,12,-3,-13,2
129.14,16,6,-10,1
129.14,24,15,-10,0
129.141,31,27,-3,2
129.141,35,33,4,5
129.142,30,24,-3,-3
129.143,18,14,-6,-2
129.143,19,21,5,7
129.144,22,23,9,6
129.144,17,17,6,2
129.145,8,12,9,4
129.145,0,4,6,-2
129.146,-13,-4,12,2
129.147,-18,-5,22,10
129.147,-22,-14,20,11
129.148,-29,-24,14,7
129.148,-30,-28,0,-3
129.149,-26,-23,-10,-14
129.149,-17,-8,-3,-8
129.15,-6,-1,-2,-4
129.151,-2,0,-2,-1
129.151,3,8,13,16
129.152,18,21,23,24
129.152,26,26,24,22
129.153,22,20,13,10
129.153,11,8,0,-6
129.154,-2,0,-9,-13
129.155,-5,0,-7,-8
129.155,2,4,-2,-3
129.156,3,1,-3,-1
129.156,0,-5,-5,0
129.157,0,-11,-12,2
129.157,9,-4,-12,0
129.158,13,0,-14,-1
129.159,17,5,-16,-4
129.159,21,14,-9,-1
129.16,24,21,0,4
129.16,24,26,14,11
129.161,19,19,8,3
129.162,7,11,7,3
129.162,6,14,19,12
129.163,2,7,19,12
129.163,-7,1,29,23
129.164,-7,-7,22,21
129.164,-12,-14,13,10
129.165,-17,-18,3,-2
129.166,-26,-27,-14,-19
129.166,-34,-30,-21,-23
129.167,-24,-19,-18,-15
129.167,-6,-3,-9,-3
129.168,11,9,-3,1
129.168,18,12,-6,0
129.169,21,17,0,5
129.17,27,26,11,16
129.17,31,28,13,15
129.171,28,24,10,11
129.171,23,21,7,7
129.172,15,12,3,0
129.172,2,2,1,-1
129.173,-4,0,8,5
129.174,-4,-3,9,7
129.174,-10,-12,2,1
129.175,-14,-19,-7,-6
129.175,-15,-14,-3,-1
129.176,-6,-7,-2,0
129.176,-1,-2,-1,2
129.177,7,8,7,8
129.178,10,10,7,6
129.178,8,4,-2,-1
129.179,8,4,-8,-6
129.179,8,8,-5,-5
129.18,13,17,1,-4
129.18,8,15,8,2
129.181,0,4,8,5
129.182,0,0,2,2
129.182,1,1,1,4
129.183,7,7,5,6
129.183,6,7,6,3
129.184,3,4,6,5
129.184,3,3,6,6
129.185,2,0,0,2
129.186,0,-1,-2,0
129.186,-1,-3,-5,-4
129.187,-4,-3,-4,-2
129.187,0,1,0,2
129.188,7,6,4,9
129.188,12,7,3,8
129.189,13,7,1,5
129.19,9,4,0,1
129.19,6,4,-1,0
129.191,6,11,7,4
129.191,8,14,16,11
129.192,4,2,2,2
129.193,-2,-6,-9,-8
129.193,-4,-5,-9,-8
129.194,-2,-5,-13,-10
129.194,0,-2,-12,-6
129.195,6,9,3,4
129.195,13,17,15,15
129.196,15,22,31,24
129.196,9,15,28,19
129.197,-4,-6,5,0
129.198,-16,-21,-10,-9
129.198,-17,-19,-11,-9
129.199,-10,-8,-6,-7
129.199,-4,0,-2,-2
129.2,3,3,-3,1
129.201,14,13,3,8
129.201,25,20,6,11
129.202,23,18,3,4
129.202,17,13,0,0
129.203,10,11,2,2
129.203,8,10,10,9
129.204,6,5,11,9
129.205,0,0,9,7
129.205,-4,-4,7,6
129.206,-6,-5,7,5
129.206,-9,-9,1,0
129.207,-14,-19,-14,-10
129.207,-14,-17,-18,-15
129.208,-8,-2,0,1
129.209,4,11,15,13
129.209,12,15,19,17
129.21,14,11,11,12
129.21,11,7,3,1
129.211,4,4,0,-3
129.211,-2,2,2,0
129.212,0,4,7,6
129.213,7,9,7,5
129.213,4,3,0,-1
129.214,1,2,-1,-3
129.214,0,2,-1,-2
129.215,2,4,0,0
129.215,4,4,-1,0
129.216,3,2,-1,0
129.217,2,2,-1,-3
129.217,-1,0,0,0
129.218,-1,-4,-2,3
129.218,2,-3,-1,9
129.219,11,4,5,12
129.219,15,8,4,9
129.22,10,3,0,5
129.221,9,5,3,6
129.221,10,11,8,5
129.222,6,8,5,1
129.222,0,0,0,-2
129.223,-5,-5,-1,0
129.224,0,2,3,3
129.224,2,3,3,4
129.225,4,2,0,3
129.225,5,0,-4,1
129.226,6,0,-3,2
129.226,11,8,1,3
129.227,9,8,2,0
129.228,4,4,2,2
129.228,2,3,3,2
129.229,3,4,2,0
129.229,0,0,-1,-2
129.23,-3,-3,-2,0
129.23,2,4,4,5
129.231,8,12,10,6
129.232,7,11,7,0
129.232,2,6,3,-2
129.233,0,5,3,-2
129.233,-2,2,0,-1
129.234,0,3,2,0
129.234,0,1,0,-1
129.235,-2,-3,-1,0
129.236,0,-3,-2,1
129.236,0,-3,-2,6
129.237,7,2,2,6
129.237,9,7,6,7
129.238,5,2,1,4
129.238,4,0,1,5
129.239,7,5,4,5
129.24,8,9,6,4
129.24,4,6,4,2
129.241,3,5,3,2
129.241,2,3,3,3
129.242,3,3,3,3
129.243,2,0,0,2
129.243,3,0,0,4
129.244,5,4,3,4
129.244,5,5,4,4
129.245,5,5,5,4
129.245,2,2,2,1
129.246,0,0,0,0
129.247,0,0,0,-2
129.247,0,1,0,0
129.248,1,4,3,1
129.248,1,3,2,2
129.249,3,1,0,2
129.249,5,3,0,2
129.25,5,4,2,2
129.251,6,7,5,3
129.251,5,9,7,2
129.252,4,8,7,3
129.252,3,6,5,1
129.253,2,5,4,0
129.253,-1,0,0,-1
129.254,-3,-3,-2,-2
129.255,-2,-2,-1,0
129.255,1,0,1,2
129.256,4,4,3,3
129.256,3,3,3,2
129.257,1,1,2,4
129.257,3,1,3,7
129.258,6,1,1,7
129.259,8,1,0,6
129.259,8,2,-1,5
129.26,10,5,0,3
129.26,9,8,2,3
129.261,7,6,1,1
129.261,3,4,0,0
129.262,0,0,0,0
129.263,0,0,0,0
129.263,1,1,1,2
129.264,3,3,1,0
129.264,1,3,3,2
129.265,4,7,6,4
129.266,4,7,7,2
129.266,-1,1,5,2
129.267,-1,1,7,6
129.267,2,3,6,3
129.268,0,1,4,2
129.268,-2,-1,1,2
129.269,0,-2,0,3
129.269,2,-1,0,3
129.27,3,0,0,3
129.271,6,6,4,5
129.271,8,8,5,4
129.272,8,8,4,1
129.272,4,5,2,0
129.273,1,4,1,0
129.273,3,5,1,-2
129.274,0,4,3,0
129.275,0,3,5,3
129.275,3,3,4,4
129.276,4,6,6,3
129.276,4,4,2,1
129.277,1,1,-1,0
129.277,0,-3,-5,-1
129.278,0,-6,-6,0
129.279,1,-4,-5,2
129.279,3,-4,-3,6
129.28,7,0,0,9
129.28,12,6,5,12
129.281,18,12,6,9
129.281,15,12,5,2
129.282,3,1,-1,0
129.283,4,8,6,4
129.283,9,15,11,5
129.284,8,11,6,1
129.284,3,5,0,-4
129.285,0,0,-5,-7
129.286,-5,-5,-8,-8
129.286,-9,-8,-6,-6
129.287,-9,-6,0,0
129.287,-7,-3,7,8
129.288,0,2,14,13
129.288,0,1,14,13
129.289,0,-2,9,12
129.29,4,2,7,14
129.29,16,12,8,11
129.291,17,16,8,4
129.291,5,7,5,0
129.292,1,4,1,-1
129.292,2,4,-1,-1
129.293,6,6,-4,-6
129.294,3,2,-8,-9
129.294,0,0,-6,-6
129.295,2,2,-6,-1
129.295,12,7,-8,-5
129.296,10,8,-7,-9
129.296,3,5,-2,-7
129.297,-6,-2,2,0
129.298,-8,-8,2,4
129.298,-5,-9,2,9
129.299,1,-5,3,14
129.299,12,3,8,21
129.3,22,14,11,20
129.301,24,16,7,11
129.301,17,13,4,-1
129.302,0,2,1,-4
129.302,-5,0,1,1
129.303,8,11,3,3
129.303,18,20,0,-5
129.304,7,8,-10,-17
129.304,-12,-12,-16,-18
129.305,-18,-14,-7,-8
129.306,-13,-9,1,-2
129.306,-18,-13,6,8
129.307,-3,-1,16,21
129.307,13,13,23,26
129.308,20,18,21,22
129.308,15,9,9,11
129.309,8,2,1,4
129.31,7,3,0,2
129.31,5,7,3,0
129.311,2,5,1,-1
129.311,0,1,-4,-9
129.312,-6,0,-1,-8
129.312,-6,3,5,-3
129.313,-6,1,5,-2
129.314,-10,-4,3,1
129.314,-1,0,3,5
129.315,7,4,2,7
129.315,11,6,0,4
129.316,9,4,0,2
129.317,5,0,-1,5
129.317,6,0,-3,1
129.318,1,-3,-2,5
129.318,6,1,2,7
129.319,9,3,2,2
129.319,-4,-7,0,3
129.32,-6,-9,0,9
129.321,10,5,4,11
129.321,18,16,8,4
129.322,6,8,8,5
129.322,0,1,5,4
129.323,0,0,5,2
129.323,-2,-1,0,0
129.324,2,4,2,0
129.325,2,8,8,6
129.325,11,14,10,10
129.326,20,19,5,4
129.326,20,16,-6,-7
129.327,9,4,-16,-18
129.328,0,1,-12,-15
129.328,-5,-2,-8,-11
129.329,-9,-7,-7,-5
129.329,-4,-6,-7,-3
129.33,0,-1,-2,0
129.33,0,1,6,11
129.331,13,16,17,18
129.332,24,25,16,8
129.332,6,8,4,-4
129.333,-10,-6,0,-1
129.333,-5,0,7,5
129.334,0,3,9,7
129.334,1,1,6,6
129.335,0,-2,2,4
129.336,0,-2,2,5
129.336,2,0,1,3
129.337,0,-2,-2,0
129.337,-3,-6,-4,2
129.338,1,-2,0,10
129.338,17,10,2,11
129.339,23,14,-2,0
129.34,9,3,-7,-8
129.34,-5,-8,-10,-4
129.341,-1,-3,-3,3
129.341,10,10,8,8
129.342,10,10,9,8
129.342,7,9,11,6
129.343,2,4,10,5
129.344,-4,-1,7,3
129.344,-7,-4,7,6
129.345,-4,-3,8,9
129.345,1,1,8,7
129.346,3,3,7,7
129.346,3,4,6,4
129.347,2,3,2,0
129.348,-1,0,0,-2
129.348,-1,0,0,0
129.349,1,3,2,3
129.349,3,1,0,2
129.35,3,-1,-3,0
129.35,3,0,-2,0
129.351,5,7,3,2
129.352,5,8,7,5
129.352,7,8,6,4
129.353,6,8,5,1
129.353,3,4,1,-2
129.354,0,1,0,-3
129.354,0,2,0,0
129.355,2,3,0,0
129.356,4,4,0,-1
129.356,0,0,-2,-2
129.357,1,0,-3,0
129.357,3,0,-2,0
129.358,3,0,0,2
129.359,1,-2,0,5
129.359,2,-1,1,6
129.36,2,-1,2,8
129.36,4,1,5,11
129.361,10,5,8,13
129.361,12,9,10,11
129.362,11,9,6,7
129.363,9,9,4,5
129.363,13,13,3,3
129.364,12,12,0,-5
129.364,0,2,-4,-7
129.365,-1,-1,-5,-5
129.365,2,2,-6,-7
129.366,0,1,-5,-6
129.367,-1,-1,-5,-2
129.367,2,0,-3,-2
129.368,0,0,0,-1
129.368,0,0,1,0
129.369,0,1,5,5
129.369,1,3,9,8
129.37,0,1,10,9
129.371,1,3,13,10
129.371,0,2,12,8
129.372,0,1,10,8
129.372,1,4,12,10
129.373,6,9,11,9
129.373,10,11,6,3
129.374,5,7,0,0
129.375,8,7,-3,-2
129.375,10,10,-4,-6
129.376,3,2,-8,-7
129.376,0,-2,-11,-3
129.377,11,2,-13,-6
129.377,6,-2,-14,-7
129.378,2,-4,-11,-4
129.379,0,-3,-3,1
129.379,1,-2,1,7
129.38,5,2,6,9
129.38,7,9,12,10
129.381,6,9,15,11
129.381,5,7,13,10
129.382,4,4,8,4
129.383,-4,-3,3,1
129.383,-7,-5,4,5
129.384,-1,0,8,11
129.384,10,9,9,11
129.385,13,12,6,5
129.385,8,6,1,-1
129.386,0,0,-1,-4
129.387,-5,-3,-3,-5
129.387,-9,-6,0,-2
129.388,-7,-2,5,5
129.388,3,6,9,9
129.389,9,11,9,9
129.389,13,10,4,4
129.39,7,0,-6,0
129.391,6,0,-8,-1
129.391,11,9,-1,-4
129.392,4,7,0,-3
129.392,0,4,2,0
129.393,4,7,2,0
129.393,2,4,0,-1
129.394,1,1,-2,-3
129.395,0,0,-2,-2
129.395,1,4,2,1
129.396,2,3,4,2
129.396,0,1,3,2
129.397,0,0,2,2
129.398,-1,-3,0,4
129.398,1,-2,1,7
129.399,5,0,3,8
129.399,7,2,4,9
129.4,8,3,4,8
129.4,7,4,5,8
129.401,9,7,5,5
129.402,8,8,5,4
129.402,6,6,3,1
129.403,4,5,3,0
129.403,2,3,1,0
129.404,1,2,0,0
129.404,1,2,0,0
129.405,0,0,0,0
129.406,1,0,0,0
129.406,0,0,0,0
129.407,1,0,0,0
129.407,0,0,1,1
129.408,1,0,2,2
129.408,2,1,5,7
129.409,5,4,5,7
129.41,6,6,5,4
129.41,2,3,4,4
129.411,2,5,7,7
129.411,10,13,9,6
129.412,7,8,3,-1
129.412,0,4,1,-3
129.413,-1,1,0,-2
129.414,0,1,0,-2
129.414,0,1,-1,-2
129.415,1,1,-1,0
129.415,2,4,1,0
129.416,0,4,3,0
129.417,-2,-1,0,0
129.417,-2,-5,-1,1
129.418,-2,-5,0,5
129.418,2,-3,1,8
129.419,5,0,3,10
129.419,11,5,6,12
129.42,13,9,7,12
129.42,15,11,6,9
129.421,15,11,4,1
129.422,2,2,0,-3
129.422,-5,-3,0,-2
129.423,-6,-5,0,1
129.423,0,0,3,3
129.424,3,3,5,5
129.425,4,4,4,4
129.425,5,5,3,7
129.426,13,10,2,7
129.426,20,15,0,-1
129.427,11,9,-4,-9
129.427,-1,-1,-7,-7
129.428,-2,-2,-5,-4
129.429,-1,-2,-5,-3
129.429,-1,-2,-3,-2
129.43,1,2,1,2
129.43,5,7,6,5
129.431,7,10,10,6
129.431,4,7,8,3
129.432,0,2,3,0
129.433,-1,1,5,2
129.433,0,3,5,4
129.434,3,4,4,2
129.434,2,3,2,0
129.435,0,0,1,1
129.435,1,2,2,2
129.436,3,4,4,4
129.437,3,1,2,3
129.437,1,0,0,1
129.438,0,-3,-1,2
129.438,1,-2,0,5
129.439,3,0,3,9
129.439,10,6,5,8
129.44,10,6,5,6
129.441,4,2,3,3
129.441,2,2,3,4
129.442,4,5,4,3
129.442,2,2,1,2
129.443,2,0,-1,3
129.443,6,3,0,2
129.444,5,4,0,1
129.445,4,3,1,0
129.445,2,3,2,1
129.446,0,2,3,1
129.446,-1,0,3,2
129.447,0,2,5,4
129.448,2,3,4,3
129.448,2,3,3,2
129.449,1,2,2,3
129.449,6,6,3,5
129.45,10,9,3,2
129.45,5,5,0,-1
129.451,1,4,3,0
129.452,5,8,4,2
129.452,10,11,0,-2
129.453,4,4,-3,-6
129.453,-4,-3,-5,-4
129.454,-1,0,-2,0
129.454,4,4,0,-2
129.455,0,0,-1,-2
129.456,-1,-1,2,2
129.456,0,0,3,5
129.457,4,0,2,7
129.457,8,4,3,6
129.458,6,3,3,5
129.458,4,3,4,6
129.459,5,3,4,6
129.46,3,-2,-1,3
129.46,1,-4,-2,4
129.461,4,2,4,7
129.461,9,9,10,10
129.462,9,9,8,7
129.462,6,7,4,3
129.463,1,2,1,0
129.464,1,2,2,1
129.464,3,6,4,2
129.465,4,7,3,0
129.465,2,2,0,0
129.466,3,1,-3,0
129.466,8,5,-3,-2
129.467,2,1,-4,-4
129.468,0,0,-2,-1
129.468,2,3,1,0
129.469,0,0,0,0
129.469,-1,-1,1,2
129.47,1,3,6,7
129.47,6,7,9,8
129.471,7,9,8,5
129.472,6,9,7,2
129.472,1,4,4,1
129.473,0,3,4,2
129.473,2,5,3,1
129.474,3,5,0,-2
129.474,-1,0,-1,-4
129.475,-5,-1,0,-1
129.476,-3,-2,1,3
129.476,1,0,2,3
129.477,0,-1,0,5
129.477,2,0,1,8
129.478,8,3,3,10
129.478,12,6,1,5
129.479,7,2,-1,3
129.48,3,0,0,4
129.48,5,2,3,6
129.481,5,2,3,5
129.481,5,3,3,5
129.482,4,3,3,5
129.482,9,9,5,6
129.483,9,8,4,3
129.484,7,5,1,0
129.484,1,0,-2,-3
129.485,-2,-1,-3,-4
129.485,-2,0,0,0
129.486,2,4,3,2
129.487,4,6,4,1
129.487,2,4,2,0
129.488,1,1,0,0
129.488,1,0,1,2
129.489,3,2,3,4
129.489,4,2,2,4
129.49,3,-1,-1,2
129.491,3,3,3,4
129.491,6,8,7,6
129.492,6,10,8,3
129.492,4,8,7,1
129.493,1,5,4,0
129.494,-1,2,1,-3
129.494,-3,0,0,-2
129.495,-4,-2,0,0
129.495,-1,-1,0,1
129.496,0,0,2,2
129.496,0,0,2,4
129.497,0,-2,0,6
129.497,3,0,1,8
129.498,7,3,3,11
129.499,15,10,5,9
129.499,14,8,1,4
129.5,6,3,0,3
129.5,4,0,-1,2
129.501,7,3,-1,3
129.502,11,8,0,1
129.502,9,7,0,0
129.503,4,5,1,-1
129.503,1,1,0,-2
129.504,-2,0,0,-3
129.504,-4,-2,0,-1
129.505,-4,-1,2,1
129.506,0,2,5,4
129.506,3,3,5,5
129.507,3,2,5,4
129.507,3,4,4,4
129.508,3,3,5,5
129.508,5,5,4,7
129.509,8,4,2,4
129.509,4,0,-1,2
129.51,4,2,0,4
129.511,8,8,5,5
129.511,9,11,6,3
129.512,7,9,4,0
129.512,6,9,2,-3
129.513,2,5,0,-6
129.514,-2,0,-4,-8
129.514,-5,-3,-4,-4
129.515,-3,-2,-2,-3
129.515,-1,0,-1,0
129.516,0,1,3,2
129.516,0,0,4,5
129.517,4,3,6,7
129.518,4,2,3,6
129.518,4,0,1,7
129.519,9,3,0,6
129.519,10,3,1,6
129.52,9,5,3,6
129.52,8,4,2,5
129.521,6,3,2,4
129.522,6,5,4,3
129.522,6,6,4,3
129.523,4,5,4,1
129.523,0,2,1,0
129.524,0,2,1,0
129.524,0,2,3,1
129.525,0,2,2,2
129.526,2,2,1,2
129.526,2,0,-1,1
129.527,3,1,0,3
129.527,5,3,0,2
129.528,5,3,1,3
129.529,3,2,2,2
129.529,2,3,3,2
129.53,0,2,4,3
129.53,3,6,6,4
129.531,4,10,11,2
129.531,0,6,7,1
129.532,-1,0,1,3
129.533,7,6,0,0
129.533,6,6,0,-2
129.534,0,2,0,-3
129.534,-1,0,0,-1
129.535,0,1,0,0
129.535,-3,-3,0,0
129.536,-4,-3,1,2
129.536,0,-1,2,6
129.537,5,3,4,8
129.538,8,4,4,8
129.538,9,5,3,8
129.539,11,5,1,6
129.539,11,5,0,2
129.54,7,3,0,2
129.541,6,2,0,2
129.541,6,4,1,2
129.542,4,3,0,0
129.542,1,2,1,0
129.543,1,2,3,2
129.543,2,3,4,2
129.544,2,3,3,2
129.545,3,3,2,1
129.545,4,4,2,2
129.546,4,1,0,0
129.546,3,2,0,0
129.547,2,2,1,1
129.547,3,3,2,2
129.548,3,2,0,1
129.549,0,1,1,3
129.549,3,3,2,3
129.55,3,2,2,2
129.55,3,5,4,3
129.551,4,6,6,3
129.551,3,6,6,4
129.552,3,6,6,3
129.553,2,5,3,1
129.553,0,1,0,-1
129.554,0,0,0,0
129.554,0,1,1,0
129.555,0,1,1,1
129.555,0,0,0,0
129.556,-2,-1,0,0
129.557,-3,-3,1,2
129.557,-2,-2,3,5
129.558,0,-2,6,10
129.558,6,2,7,12
129.559,10,6,6,14
129.56,18,13,6,14
129.56,24,18,3,5
129.561,17,13,-2,-4
129.561,2,4,-4,-7
129.562,-2,0,-4,-7
129.562,-5,-3,-5,-7
129.563,-5,-4,-2,-2
129.564,0,0,1,3
129.564,5,4,2,4
129.565,7,5,2,2
129.565,4,4,0,2
129.566,4,2,0,0
129.566,2,2,2,2
129.567,2,2,4,5
129.568,3,3,5,5
129.568,3,3,4,4
129.569,3,2,3,4
129.569,4,3,3,4
129.57,5,4,3,3
129.57,4,7,6,3
129.571,5,6,5,2
129.572,3,4,4,1
129.572,0,2,2,0
129.573,1,2,2,0
129.573,0,2,1,0
129.574,-1,0,0,0
129.574,0,1,0,1
129.575,1,2,2,2
129.576,2,3,2,2
129.576,3,2,2,3
129.577,3,0,0,3
129.577,3,0,0,2
129.578,3,0,0,3
129.579,3,1,0,5
129.579,5,0,1,4
129.58,5,2,2,5
129.58,6,4,3,7
129.581,8,5,4,6
129.581,8,6,3,5
129.582,5,2,2,4
129.582,6,5,2,1
129.583,4,4,1,0
129.584,3,4,2,0
129.584,4,6,3,1
129.585,5,7,2,0
129.585,4,5,0,-2
129.586,-1,0,-2,-3
129.586,-3,-4,-2,-1
129.587,-1,-1,0,2
129.588,0,0,3,3
129.588,2,2,5,5
129.589,3,4,7,7
129.589,3,3,4,6
129.59,4,3,4,4
129.591,5,5,6,4
129.591,3,4,6,2
129.592,-2,1,5,3
129.592,1,2,4,3
129.593,5,5,3,0
129.593,1,2,1,-1
129.594,0,2,2,0
129.595,0,2,2,1
129.595,2,2,0,4
129.596,8,6,0,0
129.596,3,2,0,0
129.597,1,0,0,3
129.597,5,0,-1,4
129.598,9,2,-3,0
129.599,3,-1,-4,0
129.599,0,-2,-1,6
129.6,8,5,3,8
129.6,10,6,3,6
129.601,7,5,1,2
129.601,4,4,3,4
129.602,8,7,3,2
129.603,3,4,2,1
129.603,5,5,1,0
129.604,5,5,1,0
129.604,3,4,0,0
129.605,3,4,0,0
129.605,1,2,0,0
129.606,1,2,0,0
129.607,0,1,1,0
129.607,-3,-2,1,1
129.608,-2,-1,3,4
129.608,2,2,6,8
129.609,5,3,3,5
129.609,5,5,6,7
129.61,6,5,7,7
129.611,7,8,8,4
129.611,4,6,5,0
129.612,0,4,3,0
129.612,0,3,2,-1
129.613,-1,2,2,-1
129.613,-1,1,1,-1
129.614,-1,1,0,0
129.615,-1,0,0,0
129.615,0,1,2,3
129.616,5,5,3,4
129.616,7,4,1,2
129.617,3,-1,-2,0
129.617,0,-5,-3,2
129.618,1,-4,-1,6
129.619,7,0,1,12
129.619,19,11,2,10
129.62,21,12,0,1
129.62,6,0,-4,0
129.621,2,0,0,2
129.621,2,3,5,3
129.622,2,3,5,3
129.623,3,6,6,5
129.623,5,8,7,4
129.624,3,4,2,0
129.624,2,1,-1,-1
129.625,1,1,-2,-2
129.626,1,3,0,0
129.626,5,6,2,0
129.627,1,2,1,0
129.627,0,-1,0,-2
129.628,-5,-3,0,0
129.628,-4,-3,5,6
129.629,0,2,8,12
129.63,7,5,7,10
129.63,8,6,5,6
129.631,8,7,5,6
129.631,15,16,7,3
129.632,9,12,3,-5
129.632,-6,-1,-1,-8
129.633,-11,-6,-1,-3
129.634,-5,-3,0,0
129.634,0,1,2,3
129.635,5,6,4,8
129.635,14,11,4,4
129.636,9,7,0,-2
129.637,-1,-2,-4,-4
129.637,-3,-4,-3,-2
129.638,-3,-3,-1,3
129.638,1,-1,2,9
129.639,7,3,4,9
129.639,8,2,1,7
129.64,5,0,2,7
129.64,7,3,4,10
129.641,11,9,7,9
129.642,9,7,5,4
129.642,4,3,2,0
129.643,1,2,1,0
129.643,1,2,1,1
129.644,2,3,2,1
129.644,2,3,1,1
129.645,2,3,1,0
129.646,2,4,1,0
129.646,1,2,2,1
129.647,1,1,0,0
129.647,2,2,1,1
129.648,3,3,2,1
129.648,1,2,2,0
129.649,0,0,1,2
129.65,1,1,3,5
129.65,5,6,6,6
129.651,5,7,8,5
129.651,4,6,6,3
129.652,3,4,4,2
129.652,3,6,4,3
129.653,9,10,3,1
129.654,10,11,0,-5
129.654,0,1,-4,-9
129.655,-9,-7,-5,-7
129.655,-8,-7,-4,-1
129.656,-2,-1,0,2
129.657,2,1,3,6
129.657,6,3,4,11
129.658,13,7,3,9
129.658,13,6,1,5
129.659,7,2,0,2
129.659,2,1,0,3
129.66,3,1,3,6
129.661,5,3,4,6
129.661,5,5,5,4
129.662,2,3,4,3
129.662,3,5,5,4
129.663,6,7,4,5
129.663,12,10,3,-1
129.664,1,2,0,-5
129.665,-4,-1,-1,-3
129.665,-4,-3,0,0
129.666,-1,-1,1,1
129.666,0,1,3,4
129.667,3,3,4,5
129.667,6,4,5,6
129.668,7,7,6,6
129.669,10,10,6,5
129.669,9,10,2,0
129.67,5,4,-1,-4
129.67,-1,0,-3,-5
129.671,-5,-2,0,0
129.671,0,2,2,2
129.672,4,7,4,1
129.673,3,7,4,1
129.673,2,4,4,1
129.674,0,1,2,2
129.674,1,0,0,0
129.675,0,-1,-2,1
129.675,2,0,0,3
129.676,4,2,3,6
129.677,5,2,2,6
129.677,5,2,2,5
129.678,5,0,0,3
129.678,4,1,0,5
129.679,6,2,1,6
129.679,7,2,2,6
129.68,7,2,1,4
129.681,4,1,1,4
129.681,5,5,4,5
129.682,6,7,6,6
129.682,7,8,5,3
129.683,4,5,3,0
129.684,0,3,1,-1
129.684,0,1,1,0
129.685,0,1,0,0
129.685,1,1,0,0
129.686,1,0,0,-2
129.686,-1,-1,0,0
129.687,0,0,1,3
129.688,2,3,4,5
129.688,4,4,5,6
129.689,4,4,4,5
129.689,4,3,2,5
129.69,10,10,5,8
129.69,16,17,6,2
129.691,8,9,0,-3
129.692,1,3,-2,-5
129.692,-3,0,-1,-6
129.693,-6,-2,0,-4
129.693,-6,-3,1,0
129.694,-2,0,3,2
129.694,0,1,4,3
129.695,0,1,4,5
129.696,0,0,4,5
129.696,3,0,4,6
129.697,4,2,3,8
129.697,8,2,3,9
129.698,9,1,0,7
129.698,8,1,-1,5
129.699,5,0,-1,4
129.7,8,3,0,3
129.7,8,7,3,4
129.701,6,6,4,3
129.701,5,6,3,1
129.702,4,5,0,0
129.702,2,4,0,0
129.703,2,3,1,0
129.704,3,4,2,0
129.704,1,1,0,0
129.705,0,-1,-1,0
129.705,1,0,0,1
129.706,3,4,3,3
129.707,4,5,4,3
129.707,3,2,2,3
129.708,3,0,0,2
129.708,2,-1,-2,3
129.709,6,3,1,4
129.709,8,7,4,4
129.71,7,7,5,3
129.711,6,8,6,2
129.711,5,9,4,0
129.712,2,6,3,-1
129.712,0,4,4,-1
129.713,-3,0,0,-2
129.713,-3,-2,-1,-1
129.714,-2,-1,0,1
129.715,0,0,2,2
129.715,3,2,3,3
129.716,2,3,4,4
129.716,2,1,2,4
129.717,0,-2,0,4
129.717,2,-1,0,6
129.718,8,4,2,8
129.719,13,8,3,7
129.719,11,5,0,4
129.72,6,0,-3,2
129.72,4,-1,-3,3
129.721,6,3,1,3
129.721,7,6,3,3
129.722,5,6,4,2
129.723,1,4,5,1
129.723,-2,0,3,0
129.724,-3,0,3,4
129.724,2,4,5,8
129.725,10,11,6,6
129.725,10,9,4,1
129.726,3,3,0,-2
129.727,-4,-4,-3,-3
129.727,-5,-5,-2,0
129.728,-1,0,1,3
129.728,2,2,3,4
129.729,4,3,4,5
129.729,5,4,4,4
129.73,4,5,4,4
129.731,5,7,6,4
129.731,6,9,6,4
129.732,6,8,5,0
129.732,3,8,4,-1
129.733,-2,2,1,-3
129.733,-3,0,0,-2
129.734,1,2,0,0
129.735,1,0,-1,-1
129.735,0,-3,-4,0
129.736,0,-3,-2,2
129.736,1,-2,-1,6
129.737,9,4,1,10
129.738,17,10,3,8
129.738,12,6,1,3
129.739,4,0,0,2
129.739,1,-1,0,2
129.74,3,1,2,3
129.74,1,2,4,4
129.741,2,3,8,7
129.742,4,5,10,6
129.742,1,2,6,5
129.743,1,1,4,5
129.743,6,5,4,7
129.744,14,14,5,3
129.744,7,7,-1,-3
129.745,0,-1,-4,-4
129.746,0,-2,-5,-2
129.746,4,2,-3,-2
129.747,3,3,0,0
129.747,3,4,2,1
129.748,4,5,3,1
129.748,3,4,1,0
129.749,1,1,0,0
129.75,1,2,2,3
129.75,4,5,4,2
129.751,3,5,6,2
129.751,2,4,6,2
129.752,1,4,4,1
129.753,1,4,6,2
129.753,1,3,4,3
129.754,2,2,3,2
129.754,1,1,0,0
129.755,3,1,-1,0
129.755,2,2,0,1
129.756,3,3,2,3
129.756,4,2,0,2
129.757,2,0,-1,1
129.758,0,-2,-1,2
129.758,2,0,0,6
129.759,5,0,1,7
129.759,6,2,2,7
129.76,8,3,3,8
129.76,8,3,2,5
129.761,6,4,4,6
129.762,6,6,5,5
129.762,5,7,6,4
129.763,2,4,4,1
129.763,0,2,2,0
129.764,0,1,2,1
129.764,0,2,3,2
129.765,3,5,4,2
129.766,5,6,2,1
129.766,4,4,1,0
129.767,0,-1,-3,-2
129.767,0,-1,-1,0
129.768,0,1,1,2
129.769,2,2,2,3
129.769,2,2,4,3
129.77,1,2,4,4
129.77,2,3,6,6
129.771,4,6,6,5
129.771,3,5,5,4
129.772,2,4,5,3
129.773,4,5,5,3
129.773,4,4,2,2
129.774,6,7,1,1
129.774,9,8,-1,-3
129.775,2,3,-2,-3
129.775,0,0,-1,-1
129.776,2,2,-3,-3
129.777,-1,-2,-5,-4
129.777,-2,-3,-3,0
129.778,0,-1,0,4
129.778,4,0,1,6
129.779,5,0,0,6
129.779,5,0,1,8
129.78,7,3,5,9
129.781,9,6,7,10
129.781,10,9,9,9
129.782,8,9,7,6
129.782,5,5,5,2
129.783,2,3,2,1
129.783,2,4,3,2
129.784,1,3,2,0
129.785,0,0,0,-1
129.785,0,2,1,0
129.786,3,3,0,0
129.786,2,3,0,0
129.787,2,2,0,-1
129.788,0,0,0,0
129.788,0,0,0,1
129.789,0,0,2,2
129.789,3,2,3,4
129.79,1,0,2,3
129.79,1,0,2,5
129.791,5,4,5,8
129.792,12,13,10,11
129.792,18,19,10,4
129.793,10,12,3,-3
129.793,-1,1,-1,-5
129.794,-5,-2,-4,-6
129.794,-6,-4,-3,-4
129.795,-5,-5,-2,-1
129.795,0,0,1,4
129.796,3,2,3,6
129.797,5,2,2,3
129.797,2,0,0,2
129.798,0,-3,0,4
129.798,3,0,4,10
129.799,11,6,5,11
129.799,12,7,5,6
129.8,6,1,2,5
129.801,6,2,2,7
129.801,12,11,5,7
129.802,13,11,3,1
129.802,8,8,1,-2
129.803,0,2,-2,-4
129.804,-3,-1,-1,-4
129.804,-4,-1,0,-2
129.805,-1,1,0,0
129.805,0,3,3,2
129.806,1,2,3,2
129.806,1,1,1,2
129.807,1,0,1,2
129.808,1,0,2,3
129.808,4,4,4,6
129.809,8,6,4,5
129.809,7,4,2,3
129.81,2,1,0,2
129.81,4,4,5,3
129.811,5,8,7,4
129.812,4,7,6,2
129.812,3,6,4,0
129.813,0,5,3,0
129.813,0,2,0,-2
129.814,-1,1,0,-1
129.814,0,0,0,0
129.815,1,0,0,0
129.816,0,0,0,0
129.816,1,0,0,1
129.817,1,0,0,3
129.817,5,3,2,6
129.818,5,1,1,4
129.819,5,0,0,6
129.819,5,0,0,6
129.82,6,2,3,7
129.82,8,4,4,7
129.821,7,6,5,6
129.821,7,6,6,5
129.822,5,5,4,3
129.822,4,5,4,2
129.823,3,5,3,1
129.824,2,3,2,0
129.824,1,1,0,0
129.825,2,1,-1,-1
129.825,1,2,0,0
129.826,0,0,0,0
129.827,0,0,0,3
129.827,4,4,3,4
129.828,4,3,2,2
129.828,3,3,3,2
129.829,3,4,3,3
129.829,4,4,4,3
129.83,4,5,3,3
129.831,4,7,5,1
129.831,3,6,3,0
129.832,1,5,2,0
129.832,0,3,3,0
129.833,-2,0,0,-1
129.833,-4,-4,-1,-2
129.834,-5,-5,0,1
129.835,0,-1,3,5
129.835,4,4,6,8
129.836,8,6,7,8
129.836,9,6,3,6
129.837,11,8,1,2
129.837,9,6,0,0
129.838,5,4,0,0
129.839,5,2,-1,0
129.839,4,3,-1,0
129.84,4,1,-2,0
129.84,3,-1,-4,0
129.841,3,0,0,3
129.841,6,4,2,5
129.842,6,1,0,4
129.843,5,0,0,3
129.843,6,4,3,5
129.844,6,6,5,5
129.844,5,5,6,3
129.845,1,3,4,0
129.846,-1,0,4,1
129.846,-3,0,4,2
129.847,-2,0,4,5
129.847,4,5,7,6
129.848,7,7,5,2
129.848,3,3,1,0
129.849,0,0,0,1
129.849,2,0,-1,2
129.85,7,4,0,0
129.851,6,7,4,2
129.851,7,8,4,3
129.852,6,8,4,1
129.852,4,7,1,-2
129.853,0,3,-1,-5
129.853,-2,2,0,-3
129.854,-1,2,1,-1
129.855,0,2,1,-1
129.855,0,0,0,-1
129.856,-3,-2,0,0
129.856,0,-1,1,3
129.857,1,0,3,6
129.857,3,0,2,8
129.858,8,3,3,8
129.859,9,4,2,8
129.859,12,6,3,10
129.86,16,10,1,4
129.86,9,5,0,0
129.861,3,2,0,0
129.862,-2,-3,-3,0
129.862,0,0,0,3
129.863,6,6,6,6
129.863,6,8,7,4
129.864,4,6,4,1
129.864,0,2,2,0
129.865,-2,0,0,0
129.866,-1,0,1,1
129.866,1,1,2,3
129.867,1,3,4,3
129.867,1,1,3,4
129.868,2,2,3,4
129.869,3,2,3,3
129.869,1,0,3,3
129.87,1,0,4,6
129.87,5,5,6,8
129.871,10,10,6,2
129.871,4,6,2,0
129.872,1,3,3,0
129.873,2,5,3,0
129.873,4,5,0,-1
129.874,3,5,0,-3
129.874,1,2,-1,-3
129.875,0,2,0,-1
129.875,0,0,-1,0
129.876,0,0,-1,0
129.877,1,0,0,2
129.877,4,0,0,4
129.878,7,4,2,7
129.878,10,6,1,4
129.879,7,3,0,3
129.879,5,2,0,4
129.88,6,2,2,5
129.881,5,2,2,4
129.881,3,0,2,5
129.882,2,0,3,5
129.882,3,1,4,5
129.883,3,2,5,5
129.883,4,4,6,6
129.884,5,6,6,4
129.884,3,3,4,2
129.885,2,3,2,2
129.886,2,2,1,1
129.886,2,3,1,1
129.887,2,3,2,1
129.887,3,3,1,2
129.888,3,3,0,0
129.889,2,1,0,0
129.889,1,0,1,1
129.89,3,3,2,3
129.89,7,8,5,3
129.891,6,9,5,0
129.891,1,5,3,0
129.892,-1,2,2,0
129.893,0,3,3,0
129.893,-1,1,1,0
129.894,0,2,1,1
129.894,1,2,1,1
129.895,4,4,1,2
129.895,5,4,1,2
129.896,6,5,0,1
129.897,3,1,-2,0
129.897,3,0,-1,1
129.898,3,0,0,2
129.898,1,-1,0,2
129.899,1,0,1,6
129.899,4,1,4,8
129.9,6,3,5,8
129.901,5,3,5,8
129.901,8,6,6,7
129.902,7,5,5,5
129.902,6,5,3,4
129.903,6,6,2,0
129.903,3,4,1,0
129.904,1,2,0,0
129.905,1,2,0,0
129.905,1,2,1,0
129.906,1,2,1,0
129.906,1,1,1,1
129.907,1,1,1,1
129.908,2,2,1,2
129.908,3,3,3,3
129.909,3,3,2,2
129.909,2,2,2,2
129.91,2,1,2,1
129.91,3,4,4,3
129.911,4,8,7,3
129.912,3,6,6,2
129.912,2,4,5,1
129.913,1,3,3,1
129.913,4,5,2,3
129.914,10,9,0,-1
129.914,5,5,-1,-4
129.915,-1,-1,-4,-4
129.915,-2,-3,-3,-1
129.916,0,-1,-2,0
129.917,1,0,-1,3
129.917,5,2,1,5
129.918,7,3,2,6
129.918,6,1,0,5
129.919,4,-2,-1,5
129.92,4,-1,0,6
129.92,7,2,3,8
129.921,10,7,7,9
129.921,10,9,8,7
129.922,6,5,5,3
129.922,2,2,2,1
129.923,2,3,1,0
129.924,2,4,3,2
129.924,1,3,3,0
129.925,1,2,2,1
129.925,2,1,0,0
129.926,0,1,2,0
129.926,0,1,1,0
129.927,0,0,1,2
129.928,2,1,2,3
129.928,2,2,2,3
129.929,3,1,2,5
129.929,7,5,2,5
129.93,9,7,3,4
129.93,8,10,5,1
129.931,3,6,3,0
129.932,1,4,4,-1
129.932,0,3,2,-1
129.933,0,3,2,0
129.933,1,3,0,-2
129.934,0,1,0,-2
129.934,-1,0,0,-1
129.935,-1,0,1,1
129.936,0,0,2,2
129.936,1,0,3,5
129.937,4,3,3,7
129.937,8,4,2,7
129.938,11,6,0,3
129.939,5,2,0,1
129.939,1,-1,0,3
129.94,3,0,0,5
129.94,5,1,2,7
129.941,8,4,3,7
129.941,10,9,6,6
129.942,8,6,4,3
129.943,3,3,2,2
129.943,1,2,1,0
129.944,1,1,0,0
129.944,0,0,0,0
129.945,0,0,0,1
129.945,2,2,2,3
129.946,3,3,2,2
129.947,2,2,2,2
129.947,2,1,1,3
129.948,4,2,2,4
129.948,5,3,2,3
129.949,3,3,2,3
129.949,3,2,2,3
129.95,4,3,3,4
129.951,6,8,7,3
129.951,5,9,6,2
129.952,5,7,4,0
129.952,3,6,2,-3
129.953,-2,1,0,-2
129.953,-1,1,0,-2
129.954,-1,0,0,-1
129.955,-1,0,-1,-2
129.955,-1,0,1,0
129.956,0,1,3,3
129.956,0,0,2,4
129.957,1,-1,1,4
129.957,1,-2,1,4
129.958,0,-4,0,7
129.959,3,-4,0,11
129.959,10,3,5,13
129.96,16,9,7,12
129.96,14,9,5,8
129.961,12,9,5,5
129.962,9,5,0,1
129.962,3,1,-2,-2
129.963,0,0,-3,-1
129.963,2,2,0,0
129.964,3,5,1,0
129.964,2,4,2,0
129.965,1,4,1,0
129.965,0,3,2,0
129.966,1,3,1,0
129.967,3,3,2,2
129.967,4,5,2,1
129.968,4,4,2,0
129.968,0,1,0,0
129.969,0,0,0,0
129.97,1,0,1,1
129.97,2,3,4,4
129.971,3,5,7,4
129.971,2,4,7,3
129.972,0,2,4,3
129.972,5,6,4,5
129.973,7,7,3,4
129.974,9,9,2,0
129.974,6,7,0,-3
129.975,-1,0,-3,-5
129.975,-4,-3,-2,-3
129.976,-4,-3,-1,0
129.976,-1,-1,1,3
129.977,2,1,3,5
129.978,5,2,4,8
129.978,7,3,2,6
129.979,6,1,1,7
129.979,8,1,1,7
129.98,9,3,0,6
129.98,9,4,2,6
129.981,9,6,2,4
129.982,6,4,3,2
129.982,2,3,2,1
129.983,1,2,3,1
129.983,3,4,4,1
129.984,3,4,3,1
129.984,2,3,1,0
129.985,1,3,2,0
129.986,1,3,1,0
129.986,2,4,3,0
129.987,0,3,2,0
129.987,-1,0,1,0
129.988,-1,0,1,1
129.988,1,1,2,3
129.989,4,4,4,4
129.99,4,4,5,3
129.99,2,2,3,5
129.991,3,1,2,3
129.991,3,1,1,3
129.992,2,2,3,3
129.992,3,5,5,4
129.993,3,4,6,3
129.994,1,3,5,3
129.994,2,2,2,2
129.995,3,1,0,3
129.995,8,5,0,2
129.996,9,7,0,0
129.996,4,1,-4,-3
129.997,0,-2,-4,0
129.998,2,-1,-2,1
129.998,4,1,0,2
129.999,5,2,0,4
129.999,7,4,3,5
130,7,5,3,5
130.001,4,3,2,3
130.001,4,4,5,3
130.002,3,4,5,4
130.002,4,5,6,4
130.003,4,5,4,3
130.003,4,3,1,0
130.004,1,1,0,-1
130.005,0,0,0,0
130.005,0,1,2,1
130.006,2,4,4,3
130.006,2,3,4,2
130.007,1,1,2,2
130.007,1,2,3,3
130.008,1,1,3,4
130.009,3,2,2,4
130.009,6,3,2,3
130.01,5,1,0,1
130.01,4,3,1,3
130.011,7,9,6,4
130.011,7,10,5,2
130.012,4,7,3,-1
130.013,2,6,2,-1
130.013,0,5,1,-3
130.014,-1,2,1,-2
130.014,-2,-1,-1,-1
130.015,-1,-2,-2,0
130.015,0,0,0,2
130.016,2,1,0,3
130.017,3,1,1,4
130.017,3,0,2,5
130.018,5,1,2,6
130.018,7,3,2,8
130.019,10,5,2,7
130.019,10,5,1,6
130.02,10,5,0,4
130.021,8,4,0,2
130.021,5,3,1,1
130.022,2,2,1,0
130.022,0,1,2,1
130.023,0,3,6,2
130.023,0,1,4,2
130.024,0,0,2,2
130.025,0,1,3,4
130.025,3,2,2,3
130.026,5,5,3,4
130.026,6,6,4,2
130.027,5,5,2,1
130.027,3,2,0,0
130.028,1,1,0,0
130.029,1,0,0,1
130.029,2,2,1,2
130.03,5,4,2,3
130.03,6,8,5,3
130.031,5,8,5,2
130.031,3,5,3,0
130.032,2,4,2,-1
130.033,1,6,3,-1
130.033,-1,3,2,-2
130.034,-3,0,1,-1
130.034,-1,1,2,0
130.035,-1,0,0,1
130.036,-1,-4,0,3
130.036,1,-2,0,4
130.037,2,-1,1,6
130.037,6,2,3,10
130.038,13,8,5,10
130.038,14,8,3,6
130.039,8,3,0,3
130.04,4,0,-1,2
130.04,3,0,0,3
130.041,4,3,2,4
130.041,5,5,4,5
130.042,6,6,3,4
130.042,6,6,3,2
130.043,3,4,2,0
130.044,1,3,1,0
130.044,1,3,0,0
130.045,1,2,1,0
130.045,1,1,0,0
130.046,0,1,0,0
130.046,0,1,1,1
130.047,0,0,2,4
130.048,3,1,3,5
130.048,4,3,3,4
130.049,2,1,3,3
130.049,2,1,3,5
130.05,4,4,6,6
130.05,7,9,8,6
130.051,9,10,6,3
130.052,7,9,3,0
130.052,3,6,2,-3
130.053,-3,0,-1,-5
130.053,-6,-3,-1,-4
130.054,-6,-4,0,0
130.054,-3,-1,1,3
130.055,6,4,3,8
130.056,15,11,4,4
130.056,8,4,0,1
130.057,4,2,0,2
130.057,5,2,-1,2
130.058,5,1,-3,0
130.058,3,0,-3,0
130.059,1,-1,-1,3
130.06,4,1,1,6
130.06,8,4,3,7
130.061,12,9,3,3
130.061,7,7,5,3
130.062,2,4,5,3
130.063,2,3,3,2
130.063,0,1,2,0
130.064,0,0,1,2
130.064,1,1,3,4
130.065,4,3,4,5
130.065,4,4,3,4
130.066,4,3,2,2
130.067,2,2,0,0
130.067,2,3,2,1
130.068,3,5,3,3
130.068,4,4,2,1
130.069,2,1,0,0
130.069,1,1,0,0
130.07,0,2,2,1
130.071,2,5,6,3
130.071,4,6,6,3
130.072,3,4,3,1
130.072,1,2,2,1
130.073,2,3,2,1
130.073,3,4,2,1
130.074,1,2,0,0
130.075,0,0,-1,0
130.075,1,0,-1,1
130.076,3,3,1,2
130.076,4,2,1,2
130.077,1,0,0,3
130.077,2,-1,0,6
130.078,5,1,0,4
130.079,6,2,2,5
130.079,6,3,3,6
130.08,7,4,3,5
130.08,6,4,4,5
130.081,7,5,4,4
130.081,2,1,2,2
130.082,0,0,2,4
130.083,3,4,4,5
130.083,6,6,4,4
130.084,4,4,3,1
130.084,3,2,1,0
130.085,1,2,0,0
130.085,2,3,0,1
130.086,3,3,1,1
130.087,2,2,0,0
130.087,1,1,0,0
130.088,2,1,0,0
130.088,2,2,0,2
130.089,4,4,2,3
130.089,7,6,3,3
130.09,7,7,4,2
130.091,6,8,5,1
130.091,3,6,4,0
130.092,1,3,3,0
130.092,0,3,3,0
130.093,-1,2,3,0
130.094,0,2,1,0
130.094,0,0,1,0
130.095,0,0,1,2
130.095,1,2,1,3
130.096,3,2,2,3
130.096,2,1,1,3
130.097,2,0,0,4
130.098,3,0,0,3
130.098,2,-1,1,6
130.099,3,0,2,8
130.099,6,1,3,7
130.1,5,0,4,8
130.101,6,2,4,9
130.101,9,5,5,9
130.102,8,6,4,7
130.102,8,8,5,4
130.103,6,6,3,1
130.103,2,3,2,1
130.104,2,3,0,0
130.104,3,3,0,0
130.105,6,6,-1,-2
130.106,2,3,-2,-3
130.106,2,1,-1,0
130.107,4,4,-1,0
130.107,4,2,-3,-2
130.108,0,0,-1,-1
130.108,0,0,1,0
130.109,0,0,3,3
130.11,2,2,4,3
130.11,3,5,6,4
130.111,5,8,8,5
130.111,6,9,8,4
130.112,5,9,6,2
130.113,1,5,3,0
130.113,0,2,2,0
130.114,-1,1,0,-1
130.114,0,0,0,0
130.115,0,0,0,1
130.115,0,0,2,2
130.116,1,0,2,3
130.117,1,0,0,3
130.117,2,0,0,5
130.118,6,1,1,7
130.118,8,2,1,7
130.119,7,0,0,5
130.12,6,1,1,6
130.12,8,5,3,7
130.121,9,5,4,6
130.121,9,8,5,5
130.122,7,5,2,1
130.122,4,5,2,1
130.123,3,5,2,0
130.123,2,5,2,-1
130.124,0,2,1,-2
130.125,-2,0,0,-2
130.125,-1,-1,0,0
130.126,0,0,1,0
130.126,0,1,2,2
130.127,0,2,4,3
130.127,1,1,4,5
130.128,3,2,4,8
130.129,9,5,3,9
130.129,13,6,-1,2
130.13,6,2,-1,0
130.13,3,4,3,2
130.131,5,8,6,2
130.131,3,7,6,0
130.132,1,5,4,0
130.133,0,4,4,-1
130.133,-2,1,3,-1
130.134,-4,-3,-1,0
130.134,-1,-1,0,2
130.135,8,7,2,4
130.135,12,10,0,1
130.136,7,5,0,0
130.137,1,0,-3,-2
130.137,-1,-3,-3,-1
130.138,-1,-3,-1,0
130.138,0,-1,0,4
130.139,4,1,3,9
130.14,8,4,5,11
130.14,11,6,5,8
130.141,8,4,3,6
130.141,8,6,5,5
130.142,5,3,4,5
130.142,4,3,3,4
130.143,3,3,2,2
130.144,2,3,2,0
130.144,0,3,2,0
130.145,1,4,3,1
130.145,2,4,3,0
130.146,0,2,1,-1
130.146,-1,-3,-3,-1
130.147,-1,-2,-1,2
130.148,4,2,3,6
130.148,8,7,4,5
130.149,6,4,3,3
130.149,4,3,2,3
130.15,4,5,3,3
130.15,5,7,6,3
130.151,4,7,6,2
130.152,2,4,3,0
130.152,1,5,3,0
130.153,1,5,2,0
130.153,0,3,1,-1
130.154,0,1,0,-1
130.154,0,0,0,-1
130.155,0,0,0,0
130.156,1,1,0,1
130.156,2,1,0,2
130.157,2,-1,-1,3
130.157,2,-2,-1,4
130.158,5,-1,0,6
130.158,5,1,3,9
130.159,7,2,5,9
130.16,9,5,7,9
130.16,8,5,6,8
130.161,8,6,4,5
130.161,7,7,5,3
130.162,4,6,3,0
130.162,2,4,1,0
130.163,0,1,1,0
130.164,0,1,0,0
130.164,0,0,0,-1
130.165,-1,-1,0,0
130.165,0,0,2,1
130.166,1,2,3,4
130.167,3,3,4,5
130.167,5,3,3,4
130.168,7,6,3,3
130.168,7,7,3,3
130.169,9,9,2,1
130.169,6,6,0,-2
130.17,0,1,-2,-1
130.171,1,3,0,-1
130.171,1,2,1,0
130.172,1,3,1,0
130.172,3,6,4,1
130.173,2,4,3,0
130.173,1,2,1,0
130.174,0,2,0,0
130.175,1,2,2,0
130.175,2,3,3,2
130.176,3,3,3,2
130.176,0,0,1,1
130.177,0,-1,0,4
130.177,2,0,1,6
130.178,5,2,2,6
130.179,6,1,2,8
130.179,8,2,1,5
130.18,6,2,0,4
130.18,4,2,2,5
130.181,7,5,5,6
130.181,7,7,5,4
130.182,5,5,4,2
130.183,3,4,3,1
130.183,1,3,2,0
130.184,0,2,2,0
130.184,0,1,1,1
130.185,0,-1,-1,1
130.185,1,0,0,1
130.186,3,1,0,3
130.187,4,3,2,4
130.187,5,4,2,3
130.188,4,3,3,4
130.188,4,3,2,4
130.189,5,4,2,2
130.189,4,4,3,1
130.19,4,5,2,1
130.191,4,7,5,2
130.191,3,6,4,0
130.192,1,4,2,-1
130.192,0,3,3,-1
130.193,-1,3,2,-1
130.193,-2,0,0,0
130.194,0,0,0,0
130.195,0,1,2,2
130.195,4,4,2,3
130.196,4,4,1,2
130.196,3,1,1,2
130.197,2,0,0,3
130.197,2,-1,0,4
130.198,1,-4,-3,4
130.199,5,0,0,6
130.199,7,4,5,9
130.2,9,6,6,9
130.2,7,4,4,7
130.201,7,3,3,5
130.202,6,3,3,4
130.202,6,6,3,4
130.203,8,8,3,2
130.203,8,8,1,0
130.204,7,7,0,-3
130.204,2,3,-2,-5
130.205,-1,-1,-3,-3
130.205,0,0,-2,-1
130.206,1,0,-1,0
130.207,1,1,0,0
130.207,1,0,1,1
130.208,1,0,3,2
130.208,0,1,4,4
130.209,1,1,4,5
130.21,3,3,5,6
130.21,6,6,8,7
130.211,7,9,9,6
130.211,7,8,7,3
130.212,3,6,4,1
130.212,1,5,4,0
130.213,-1,1,1,-1
130.214,-3,0,0,-1
130.214,-2,0,0,0
130.215,-1,0,0,0
130.215,0,0,1,1
130.216,0,0,1,2
130.216,2,1,1,4
130.217,3,0,1,5
130.218,6,1,0,6
130.218,7,3,1,6
130.219,8,3,0,6
130.219,8,3,1,6
130.22,9,5,2,5
130.22,7,4,1,3
130.221,5,5,2,2
130.222,3,2,1,1
130.222,2,3,2,1
130.223,2,3,3,3
130.223,3,4,3,1
130.224,2,4,2,1
130.224,1,2,2,0
130.225,0,2,3,1
130.226,0,0,2,0
130.226,0,0,0,0
130.227,-1,-1,1,3
130.227,1,1,3,5
130.228,4,2,3,5
130.228,5,3,2,5
130.229,6,6,3,6
130.23,11,9,4,4
130.23,8,9,4,0
130.231,3,6,3,0
130.231,1,4,1,-2
130.232,0,4,3,0
130.233,5,8,2,1
130.233,8,8,0,-4
130.234,0,2,-3,-6
130.234,-5,-3,-4,-4
130.235,-3,-3,-2,-1
130.235,0,0,0,2
130.236,4,4,2,3
130.237,6,5,3,3
130.237,4,1,2,4
130.238,3,0,0,4
130.238,2,0,1,6
130.239,4,0,1,5
130.239,6,3,4,9
130.24,9,6,5,10
130.241,9,6,4,7
130.241,8,5,4,4
130.242,4,1,1,2
130.242,3,2,4,4
130.243,4,4,4,4
130.243,3,3,4,2
130.244,2,2,2,0
130.245,0,1,1,0
130.245,0,2,2,2
130.246,3,5,3,1
130.246,2,4,3,0
130.247,0,0,0,-1
130.247,0,-1,-1,0
130.248,1,2,2,3
130.249,3,2,2,3
130.249,4,3,2,2
130.25,3,3,3,2
130.25,4,7,6,4
130.251,4,7,7,4
130.251,3,3,3,1
130.252,2,2,1,0
130.253,2,3,1,1
130.253,3,4,1,0
130.254,2,3,1,0
130.254,0,2,0,0
130.255,0,1,0,0
130.255,0,0,1,1
130.256,1,0,2,2
130.257,1,2,3,3
130.257,3,1,2,5
130.258,5,1,2,6
130.258,8,3,2,6
130.259,8,3,1,5
130.259,8,3,0,4
130.26,8,4,0,3
130.261,10,7,3,4
130.261,7,4,0,0
130.262,3,1,-2,0
130.262,2,2,0,1
130.263,3,3,2,1
130.263,3,4,3,1
130.264,1,3,3,1
130.265,1,3,3,3
130.265,3,2,2,2
130.266,1,1,2,1
130.266,0,0,1,1
130.267,0,1,2,3
130.268,3,3,3,4
130.268,6,4,3,5
130.269,6,5,2,3
130.269,4,3,1,2
130.27,4,3,1,0
130.27,3,6,4,1
130.271,2,5,5,0
130.272,0,3,3,0
130.272,0,4,4,1
130.273,1,5,5,0
130.273,0,3,3,-1
130.274,-3,0,2,0
130.274,-4,-2,2,0
130.275,-2,-2,1,5
130.276,3,1,2,5
130.276,5,2,0,7
130.277,12,6,0,7
130.277,15,8,0,2
130.278,8,1,-3,0
130.278,3,-1,-4,0
130.279,3,0,-2,2
130.28,4,2,0,4
130.28,6,4,4,5
130.281,7,5,5,6
130.281,8,8,7,6
130.282,6,6,4,2
130.282,1,2,2,1
130.283,1,2,2,0
130.284,1,3,3,1
130.284,3,5,3,1
130.285,2,2,1,0
130.285,0,-1,-2,0
130.286,0,-3,-3,1
130.286,4,3,1,3
130.287,5,6,5,3
130.288,3,4,3,2
130.288,2,3,3,2
130.289,0,2,4,3
130.289,1,2,4,4
130.29,3,4,4,4
130.29,4,6,5,4
130.291,4,7,6,2
130.292,3,5,4,1
130.292,1,3,1,0
130.293,0,0,-1,0
130.293,0,0,0,0
130.294,1,2,1,1
130.295,2,3,3,3
130.295,3,3,2,3
130.296,4,3,1,1
130.296,3,1,0,1
130.297,2,0,0,2
130.297,3,0,0,3
130.298,3,0,0,4
130.299,4,0,0,4
130.299,5,1,2,7
130.3,7,3,2,6
130.3,6,4,3,6
130.301,7,6,5,5
130.301,6,7,5,4
130.302,5,6,4,3
130.303,4,5,2,1
130.303,3,3,1,0
130.304,0,0,-1,-1
130.304,0,-2,-2,0
130.305,2,0,0,1
130.305,3,3,2,3
130.306,4,5,3,3
130.307,3,4,4,3
130.307,2,3,2,2
130.308,3,3,2,2
130.308,3,3,2,3
130.309,3,3,2,3
130.31,4,2,1,1
130.31,3,5,3,2
130.311,4,6,4,1
130.311,3,6,5,0
130.312,1,6,4,0
130.312,1,5,5,0
130.313,0,3,3,-1
130.313,0,3,2,-1
130.314,0,2,0,-2
130.315,-1,0,0,-2
130.315,-1,0,1,0
130.316,0,0,2,2
130.316,0,-2,0,4
130.317,2,-3,-1,7
130.317,8,0,0,9
130.318,10,3,2,9
130.319,9,4,3,10
130.319,11,6,4,9
130.32,13,8,3,6
130.32,10,6,1,1
130.321,3,0,-1,0
130.322,1,0,-1,0
130.322,2,2,1,2
130.323,4,5,2,1
130.323,2,4,3,1
130.324,2,4,3,0
130.324,0,2,3,1
130.325,0,2,1,0
130.326,0,0,0,0
130.326,0,1,0,3
130.327,4,4,4,5
130.327,7,6,4,4
130.328,6,5,2,2
130.329,4,3,1,1
130.329,1,0,0,1
130.33,1,1,2,3
130.33,5,7,6,4
130.331,4,7,6,3
130.331,2,7,5,0
130.332,0,3,3,0
130.332,0,3,3,0
130.333,0,3,2,0
130.334,0,2,1,-1
130.334,0,1,1,0
130.335,2,2,1,2
130.335,3,3,1,2
130.336,1,1,0,1
130.336,0,-2,-1,1
130.337,1,0,1,5
130.338,3,0,2,6
130.338,5,1,2,6
130.339,5,1,2,7
130.339,6,2,2,8
130.34,9,5,3,9
130.34,13,10,4,7
130.341,13,10,3,2
130.342,6,6,1,0
130.342,2,2,0,-2
130.343,0,1,0,-1
130.343,0,1,0,0
130.344,1,2,0,0
130.344,1,2,1,0
130.345,2,3,2,0
130.346,0,1,2,1
130.346,0,0,1,1
130.347,0,0,2,3
130.347,0,0,3,5
130.348,3,3,6,7
130.348,5,3,4,7
130.349,9,6,3,6
130.35,14,11,2,1
130.35,8,9,2,-1
130.351,2,6,3,0
130.351,0,3,2,-1
130.352,-1,1,0,-3
130.353,-1,2,0,-2
130.353,0,1,0,-1
130.354,0,1,1,0
130.354,0,0,1,1
130.355,0,1,1,0
130.355,0,2,3,4
130.356,2,4,5,6
130.357,5,4,4,6
130.357,6,2,1,3
130.358,3,0,0,2
130.358,3,-1,-1,4
130.359,4,-1,0,6
130.359,7,3,5,9
130.36,6,2,4,8
130.361,7,3,4,6
130.361,6,3,3,5
130.362,6,5,4,6
130.362,9,8,4,5
130.363,10,9,3,1
130.363,5,6,0,-2
130.364,0,2,-2,-3
130.365,0,1,-1,-5
130.365,-3,-1,-1,-2
130.366,-2,0,0,0
130.366,0,0,2,2
130.367,3,2,2,3
130.367,4,3,3,4
130.368,6,5,3,4
130.369,4,4,2,3
130.369,3,3,2,2
130.37,2,2,2,2
130.37,3,3,3,3
130.371,4,3,3,3
130.371,4,6,4,3
130.372,4,7,6,1
130.373,2,6,5,0
130.373,0,3,2,0
130.374,-1,1,1,0
130.374,-1,0,0,0
130.375,-1,0,0,1
130.375,0,0,1,2
130.376,2,0,1,4
130.377,3,1,2,4
130.377,3,0,0,4
130.378,4,0,0,5
130.378,5,2,1,5
130.379,6,1,2,7
130.38,8,4,3,6
130.38,8,3,1,5
130.381,7,6,3,5
130.381,8,7,4,3
130.382,5,6,3,3
130.382,4,5,2,1
130.383,3,3,1,0
130.384,1,2,0,-1
130.384,0,1,0,-1
130.385,-1,0,0,0
130.385,-1,0,1,0
130.386,0,1,2,1
130.386,2,3,3,3
130.387,3,3,2,4
130.388,4,3,3,4
130.388,4,3,3,4
130.389,5,5,3,4
130.389,6,5,3,3
130.39,6,5,3,3
130.39,5,7,3,2
130.391,4,6,3,1
130.392,3,5,2,-1
130.392,0,4,1,-1
130.393,-1,0,0,-2
130.393,-2,1,1,-1
130.394,-1,1,2,0
130.394,-1,1,2,1
130.395,0,1,3,3
130.396,3,5,5,4
130.396,5,5,4,2
130.397,0,0,0,1
130.397,0,-3,-2,4
130.398,3,-2,-1,6
130.398,7,-1,0,7
130.399,10,2,0,8
130.4,11,4,2,7
130.4,11,4,2,7
130.401,11,8,4,5
130.401,8,6,3,4
130.402,5,5,2,1
130.402,2,4,2,0
130.403,2,2,2,0
130.404,1,1,1,0
130.404,0,1,0,0
130.405,1,2,1,1
130.405,2,3,3,2
130.406,2,3,2,2
130.406,3,2,1,1
130.407,1,1,0,1
130.408,2,2,0,2
130.408,4,3,2,3
130.409,4,4,2,2
130.409,2,2,2,2
130.41,3,4,4,3
130.411,3,5,5,2
130.411,1,4,4,1
130.412,0,3,5,0
130.412,-1,4,6,2
130.413,0,2,5,2
130.413,1,3,5,3
130.414,3,4,3,2
130.415,4,5,0,2
130.415,8,7,0,0
130.416,4,3,-1,-1
130.416,0,-2,-4,-2
130.417,-2,-4,-3,0
130.417,0,-3,-2,3
130.418,4,0,0,7
130.419,8,2,2,8
130.419,9,3,2,7
130.42,8,4,2,7
130.42,8,5,4,6
130.421,8,6,5,5
130.421,6,7,4,4
130.422,5,6,3,2
130.423,3,4,3,0
130.423,1,4,3,0
130.424,0,1,1,0
130.424,0,0,0,-1
130.425,-1,0,2,1
130.425,0,1,2,1
130.426,0,0,2,2
130.427,1,0,1,4
130.427,4,2,3,5
130.428,6,6,3,6
130.428,8,7,3,5
130.429,10,7,2,3
130.429,8,5,0,0
130.43,6,5,-1,-2
130.431,3,4,0,-2
130.431,0,3,0,-1
130.432,0,3,2,-1
130.432,0,6,4,0
130.433,0,3,2,0
130.433,0,4,4,1
130.434,1,2,2,0
130.435,0,2,1,0
130.435,0,1,1,0
130.436,2,1,1,2
130.436,2,1,1,3
130.437,3,0,1,3
130.438,3,0,0,4
130.438,4,0,1,5
130.439,4,0,2,7
130.439,6,1,3,7
130.44,7,3,4,8
130.44,8,4,4,6
130.441,7,6,5,5
130.442,6,5,4,4
130.442,5,3,1,2
130.443,3,2,2,1
130.443,1,2,2,1
130.444,1,2,1,1
130.444,2,3,1,1
130.445,3,3,2,1
130.446,4,4,2,1
130.446,2,3,0,1
130.447,3,2,0,0
130.447,2,2,0,0
130.448,3,3,0,0
130.448,2,1,0,2
130.449,2,2,1,3
130.45,4,4,4,3
130.45,4,5,6,3
130.451,4,7,6,3
130.451,4,6,5,2
130.452,3,5,4,1
130.452,1,4,1,0
130.453,0,1,0,0
130.454,0,1,-1,0
130.454,1,1,-2,0
130.455,4,3,0,1
130.455,6,5,1,1
130.456,4,3,1,1
130.456,2,0,0,1
130.457,0,-4,-2,3
130.458,1,-3,-1,5
130.458,7,3,4,8
130.459,8,8,8,7
130.459,6,6,6,6
130.46,3,2,4,6
130.46,3,2,3,5
130.461,4,4,3,4
130.462,4,4,2,3
130.462,5,5,4,3
130.463,2,4,3,2
130.463,1,2,3,0
130.464,-1,0,1,0
130.464,-4,-2,1,2
130.465,1,1,2,5
130.466,8,6,3,4
130.466,7,5,2,2
130.467,6,4,0,4
130.467,11,9,0,0
130.468,8,7,-2,-3
130.469,1,1,-3,-2
130.469,0,0,-2,-1
130.47,1,1,0,-1
130.47,0,3,3,1
130.471,2,5,6,3
130.471,5,8,7,4
130.472,4,7,6,2
130.473,2,3,3,0
130.473,-1,1,1,-2
130.474,-2,0,1,0
130.474,0,0,2,2
130.475,2,3,2,2
130.475,3,3,3,2
130.476,3,2,1,1
130.477,1,0,0,2
130.477,2,-1,0,4
130.478,4,0,0,5
130.478,7,1,0,5
130.479,6,0,0,5
130.479,5,1,2,6
130.48,6,3,4,8
130.481,8,5,6,7
130.481,7,5,6,5
130.482,5,5,5,4
130.482,4,4,5,3
130.483,2,4,4,2
130.483,2,2,2,0
130.484,0,0,0,0
130.485,0,0,-1,0
130.485,0,0,0,2
130.486,3,2,1,3
130.486,5,4,3,3
130.487,4,4,2,1
130.487,2,2,1,1
130.488,2,2,2,1
130.489,2,3,3,3
130.489,3,3,2,2
130.49,4,6,4,3
130.49,6,8,6,2
130.491,4,7,4,1
130.492,1,5,2,-1
130.492,0,4,2,-1
130.493,1,2,0,0
130.493,3,2,0,0
130.494,2,3,0,-1
130.494,1,1,0,-1
130.495,0,0,-2,0
130.496,0,0,-1,1
130.496,2,0,0,3
130.497,4,2,1,4
130.497,4,2,2,5
130.498,4,0,1,4
130.498,5,0,1,5
130.499,5,2,3,7
130.5,8,4,4,7
130.5,8,6,6,6
130.501,6,6,5,4
130.501,5,6,6,4
130.502,2,4,4,2
130.502,2,2,2,1
130.503,1,2,1,1
130.504,2,3,1,0
130.504,2,2,1,1
130.505,3,3,1,1
130.505,4,4,2,0
130.506,2,4,1,0
130.506,1,2,0,0
130.507,0,0,0,0
130.508,1,0,1,1
130.508,1,1,1,3
130.509,3,2,1,3
130.509,5,4,3,4
130.51,6,6,4,4
130.51,8,10,6,3
130.511,6,8,4,1
130.512,2,5,1,-1
130.512,0,3,2,-1
130.513,0,1,0,-1
130.513,0,1,0,0
130.514,-1,0,0,0
130.514,0,0,0,1
130.515,2,1,1,4
130.516,5,4,2,4
130.516,5,3,1,3
130.517,3,1,0,2
130.517,2,0,-1,2
130.518,3,0,0,4
130.518,4,1,2,7
130.519,7,3,4,7
130.52,8,3,3,6
130.52,6,3,2,5
130.521,5,4,6,6
130.521,5,5,5,5
130.522,4,5,3,3
130.522,4,3,3,2
130.523,3,3,2,0
130.524,1,2,1,0
130.524,0,1,0,0
130.525,0,0,0,0
130.525,0,0,1,2
130.526,2,1,1,3
130.527,3,2,2,3
130.527,3,2,2,2
130.528,2,3,2,3
130.528,4,4,3,4
130.529,6,5,4,4
130.529,6,6,3,3
130.53,4,7,4,1
130.531,4,8,5,0
130.531,3,7,4,-1
130.532,0,4,2,-2
130.532,0,2,0,-2
130.533,-2,0,-1,-2
130.533,-3,-2,-2,0
130.534,-1,-3,-1,1
130.535,0,-1,0,4
130.535,6,5,5,7
130.536,8,8,7,6
130.536,7,6,4,4
130.537,5,4,1,4
130.537,7,5,0,4
130.538,8,2,-2,0
130.539,2,-2,-4,0
130.539,1,-1,-2,1
130.54,2,0,0,5
130.54,6,3,2,6
130.541,8,5,5,8
130.541,9,8,6,5
130.542,7,6,4,4
130.543,5,5,3,2
130.543,4,5,2,0
130.544,1,3,1,-1
130.544,0,0,0,0
130.545,0,0,0,0
130.545,1,1,1,1
130.546,2,2,2,2
130.547,2,2,1,1
130.547,3,3,2,2
130.548,3,4,4,3
130.548,3,4,2,2
130.549,2,3,3,2
130.549,2,2,3,3
130.55,4,5,5,3
130.551,3,5,4,2
130.551,1,3,4,0
130.552,-1,1,3,1
130.552,0,2,4,1
130.553,0,4,5,2
130.553,2,4,4,3
130.554,4,6,3,3
130.555,6,6,2,0
130.555,2,2,-1,0
130.556,2,0,-3,0
130.556,3,0,-3,0
130.557,2,-2,-3,1
130.558,3,-1,-2,3
130.558,5,0,-1,4
130.559,6,1,0,6
130.559,9,5,4,9
130.56,10,7,5,7
130.56,9,7,4,5
130.561,6,7,5,3
130.562,3,3,4,1
130.562,0,1,2,2
130.563,1,1,2,1
130.563,1,2,3,2
130.564,1,1,1,0
130.564,1,1,1,1
130.565,2,2,2,2
130.566,3,4,3,2
130.566,3,3,1,1
130.567,1,1,0,1
130.567,2,1,0,2
130.568,3,2,2,4
130.568,4,3,2,3
130.569,4,3,2,3
130.57,4,3,2,2
130.57,3,6,6,3
130.571,2,6,6,2
130.571,2,6,6,1
130.572,1,6,5,0
130.572,-2,2,4,0
130.573,-3,0,1,-1
130.574,-3,-1,1,0
130.574,0,0,0,2
130.575,5,5,2,4
130.575,10,8,2,4
130.576,9,5,0,0
130.576,4,0,-3,0
130.577,1,-3,-5,0
130.578,1,-2,-3,1
130.578,4,0,0,4
130.579,6,2,1,7
130.579,7,3,4,7
130.58,8,5,5,6
130.58,7,7,6,5
130.581,5,8,7,3
130.582,2,3,3,2
130.582,2,2,2,2
130.583,2,2,1,0
130.583,1,1,1,0
130.584,0,1,2,2
130.585,2,3,4,2
130.585,1,1,2,1
130.586,0,-1,0,1
130.586,0,0,1,3
130.587,3,3,3,6
130.587,6,5,4,7
130.588,10,8,5,7
130.589,11,8,1,1
130.589,5,2,-2,-2
130.59,1,1,-1,0
130.59,3,6,4,1
130.591,3,7,5,0
130.591,1,5,2,-2
130.592,1,5,3,-2
130.593,0,4,4,-1
130.593,0,3,2,-1
130.594,-1,0,1,-1
130.594,-1,-1,0,0
130.595,0,-1,0,1
130.595,2,1,2,4
130.596,4,2,2,4
130.597,5,2,1,5
130.597,6,3,2,6
130.598,7,4,3,6
130.598,5,1,1,4
130.599,5,1,0,4
130.599,5,1,0,4
130.6,6,4,2,6
130.601,7,4,3,6
130.601,7,5,3,4
130.602,5,4,1,1
130.602,2,2,1,2
130.603,2,2,2,2
130.604,3,2,2,1
130.604,2,2,2,1
130.605,1,2,2,1
130.605,0,1,1,2
130.606,2,3,3,3
130.606,3,3,2,2
130.607,4,4,2,2
130.607,2,1,0,1
130.608,3,2,0,2
130.609,4,4,2,3
130.609,5,5,3,3
130.61,5,6,3,1
130.61,4,7,5,1
130.611,2,5,3,0
130.611,0,4,3,0
130.612,0,4,2,-1
130.613,0,2,1,-1
130.613,-1,1,1,0
130.614,0,1,1,1
130.614,1,2,1,2
130.615,2,1,1,2
130.616,3,2,2,3
130.616,4,2,1,4
130.617,6,3,1,4
130.617,6,2,0,3
130.618,4,0,-1,2
130.618,1,-4,-4,2
130.619,1,-4,-2,5
130.62,6,2,4,9
130.62,9,6,8,10
130.621,10,9,8,8
130.621,8,8,6,5
130.622,6,6,4,2
130.622,3,4,1,0
130.623,1,3,0,-1
130.624,2,4,1,-1
130.624,-1,1,1,-2
130.625,-3,0,0,0
130.625,-1,-1,0,1
130.626,0,0,0,2
130.626,1,0,2,4
130.627,4,3,3,5
130.628,5,5,5,6
130.628,6,6,4,5
130.629,4,4,2,2
130.629,3,3,1,1
130.63,3,5,3,3
130.63,5,8,5,3
130.631,5,8,4,0
130.632,2,3,0,-2
130.632,0,3,0,-1
130.633,1,3,0,-1
130.633,0,1,0,-1
130.634,0,1,0,0
130.634,0,0,0,0
130.635,0,1,2,1
130.636,1,2,2,4
130.636,2,1,2,3
130.637,3,1,2,4
130.637,4,2,1,5
130.638,5,1,1,5
130.638,6,1,1,6
130.639,7,2,1,6
130.64,7,3,1,4
130.64,5,2,2,5
130.641,5,4,4,5
130.641,6,5,3,4
130.642,6,6,4,2
130.643,5,6,3,1
130.643,3,4,3,0
130.644,1,3,1,0
130.644,0,2,1,0
130.645,1,2,2,0
130.645,1,2,1,0
130.646,1,1,1,1
130.647,1,0,0,1
130.647,2,0,0,1
130.648,2,0,0,2
130.648,3,0,0,4
130.649,6,5,4,5
130.649,5,5,4,5
130.65,6,8,6,5
130.651,7,8,6,1
130.651,1,5,4,0
130.652,0,3,5,0
130.652,0,3,5,0
130.653,-1,2,4,0
130.653,-1,0,1,0
130.654,-1,1,1,0
130.655,2,4,2,1
130.655,4,5,2,2
130.656,7,7,0,1
130.656,7,4,-3,-1
130.657,2,-1,-6,0
130.657,1,-4,-6,0
130.658,4,-1,-2,3
130.659,6,1,0,5
130.659,7,3,3,7
130.66,7,3,3,7
130.66,8,5,4,6
130.661,7,6,6,5
130.661,5,5,5,4
130.662,1,3,5,3
130.663,1,3,5,3
130.663,0,2,5,3
130.664,0,0,3,2
130.664,-1,0,2,2
130.665,2,2,3,5
130.666,7,7,4,5
130.666,11,10,3,2
130.667,8,7,0,-2
130.667,2,1,-3,-4
130.668,0,0,-2,-1
130.668,0,0,0,0
130.669,0,1,0,1
130.67,2,2,2,2
130.67,3,6,5,3
130.671,3,8,8,3
130.671,1,6,7,2
130.672,0,2,4,1
130.672,0,1,2,1
130.673,0,0,0,0
130.674,0,0,0,2
130.674,2,1,1,4
130.675,5,4,3,5
130.675,5,3,1,4
130.676,4,2,1,2
130.676,2,0,-1,2
130.677,3,0,0,4
130.678,5,2,1,5
130.678,5,0,0,5
130.679,6,0,0,4
130.679,6,2,0,4
130.68,5,2,2,5
130.68,6,4,3,4
130.681,6,4,3,4
130.682,5,6,4,4
130.682,6,6,4,3
130.683,5,5,2,1
130.683,2,3,1,0
130.684,3,4,1,0
130.684,3,3,1,0
130.685,1,3,2,0
130.686,0,1,0,0
130.686,-1,0,0,0
130.687,1,0,1,2
130.687,3,3,2,3
130.688,4,4,3,3
130.689,3,2,2,1
130.689,1,1,2,3
130.69,2,2,4,4
130.69,4,7,7,5
130.691,6,9,7,5
130.691,5,8,5,1
130.692,2,5,3,0
130.692,0,2,2,-1
130.693,-3,0,1,-1
130.694,-2,0,1,0
130.694,0,0,1,1
130.695,2,1,1,2
130.695,3,2,0,4
130.696,5,2,0,3
130.697,4,1,0,3
130.697,4,1,0,4
130.698,5,1,0,4
130.698,6,1,0,4
130.699,6,2,1,4
130.699,8,4,1,4
130.7,7,4,2,4
130.701,6,4,3,4
130.701,4,4,3,4
130.702,4,4,3,2
130.702,3,4,3,3
130.703,3,4,3,2
130.703,2,2,1,0
130.704,1,2,1,0
130.705,1,2,1,0
130.705,1,2,1,1
130.706,3,3,1,1
130.706,2,2,1,1
130.707,2,2,1,2
130.707,4,3,1,2
130.708,4,3,1,2
130.709,3,3,2,1
130.709,2,2,2,2
