Program Time [s],data 0,data 1,data 2,data 3
158.72,0,0,-1,-1
158.721,0,1,0,-1
158.721,1,3,2,0
158.722,0,1,0,0
158.722,0,1,1,0
158.723,0,0,1,1
158.724,1,1,3,3
158.724,2,1,3,4
158.725,3,3,3,5
158.725,5,4,4,4
158.726,5,5,5,4
158.726,7,10,7,5
158.727,9,10,5,2
158.728,8,9,2,-1
158.728,4,6,0,-4
158.729,-1,1,-1,-5
158.729,-4,-1,-2,-4
158.73,-3,-2,-2,-2
158.73,0,0,0,0
158.731,0,1,1,1
158.732,1,1,2,4
158.732,2,0,1,4
158.733,2,0,1,4
158.733,4,0,2,6
158.734,4,0,2,7
158.735,5,0,2,9
158.735,7,1,2,8
158.736,8,3,3,9
158.736,10,6,4,8
158.737,10,9,7,6
158.737,8,7,5,3
158.738,4,4,3,1
158.739,2,3,0,-1
158.739,0,1,0,-1
158.74,0,0,0,0
158.74,0,0,0,0
158.741,0,1,0,1
158.741,2,2,0,2
158.742,7,6,2,3
158.743,8,7,1,1
158.743,4,2,-1,0
158.744,1,0,0,0
158.744,1,1,0,0
158.745,2,2,1,2
158.745,1,2,3,3
158.746,3,5,6,4
158.747,5,8,8,5
158.747,5,8,7,2
158.748,2,4,4,0
158.748,1,5,4,0
158.749,0,4,2,0
158.749,0,2,1,0
158.75,-1,0,0,-1
158.751,-1,0,0,0
158.751,1,1,0,2
158.752,2,1,1,3
158.752,3,0,0,2
158.753,3,0,-1,3
158.753,3,0,0,4
158.754,5,0,1,6
158.755,7,0,0,7
158.755,7,2,2,7
158.756,7,4,3,8
158.756,7,5,4,7
158.757,8,7,6,6
158.757,7,6,5,5
158.758,5,5,4,2
158.759,3,4,2,0
158.759,0,2,2,0
158.76,1,2,0,0
158.76,1,2,0,0
158.761,1,2,0,0
158.761,2,3,1,0
158.762,2,2,0,0
158.763,2,1,0,0
158.763,2,2,1,1
158.764,2,3,2,2
158.764,3,2,2,3
158.765,3,2,2,3
158.765,3,2,2,2
158.766,3,5,6,4
158.767,4,8,8,4
158.767,2,6,7,3
158.768,2,5,4,1
158.768,2,4,3,0
158.769,1,2,1,-1
158.77,0,2,0,-1
158.77,0,2,1,0
158.771,1,2,0,0
158.771,2,1,0,0
158.772,2,0,-1,0
158.772,1,0,-1,1
158.773,2,-1,-1,3
158.773,4,0,0,4
158.774,5,0,0,5
158.775,4,0,1,7
158.775,6,3,4,8
158.776,7,3,5,8
158.776,8,5,5,8
158.777,9,7,6,7
158.778,7,6,5,4
158.778,5,6,3,2
158.779,5,6,3,1
158.779,5,7,1,0
158.78,3,4,-1,-5
158.78,-3,0,-1,-4
158.781,-3,-1,0,-1
158.782,-2,0,1,1
158.782,0,0,2,2
158.783,1,1,2,4
158.783,5,4,3,8
158.784,13,9,2,5
158.784,10,6,0,1
158.785,3,1,-1,0
158.786,3,1,0,1
158.786,4,5,3,2
158.787,5,9,7,1
158.787,2,7,6,0
158.788,1,5,5,0
158.788,-1,2,2,-2
158.789,-3,0,0,-2
158.79,-4,-2,0,0
158.79,-3,-1,1,1
158.791,0,0,3,3
158.791,3,3,4,5
158.792,3,2,3,5
158.792,5,1,1,4
158.793,4,-1,0,5
158.794,6,0,0,6
158.794,6,0,0,6
158.795,9,3,1,7
158.795,10,6,2,6
158.796,10,6,2,4
158.796,8,6,3,3
158.797,6,5,2,2
158.798,2,3,0,0
158.798,1,1,0,0
158.799,0,1,1,1
158.799,2,3,2,2
158.8,3,3,2,1
158.801,1,2,2,0
158.801,1,3,3,2
158.802,2,2,2,2
158.802,3,3,3,2
158.803,1,1,1,3
158.803,2,1,1,1
158.804,1,0,2,2
158.805,0,1,3,5
158.805,3,3,4,5
158.806,4,3,4,5
158.806,6,8,8,5
158.807,6,9,7,3
158.807,4,6,4,0
158.808,3,6,3,0
158.809,1,4,0,-2
158.809,0,1,-2,-3
158.81,0,1,-1,-3
158.81,0,0,-1,-2
158.811,0,1,0,0
158.811,0,1,1,1
158.812,0,0,0,2
158.813,0,-1,0,3
158.813,3,0,0,5
158.814,4,0,2,8
158.814,7,1,2,8
158.815,8,2,2,8
158.815,8,3,3,8
158.816,8,4,3,8
158.817,10,7,6,7
158.817,9,7,5,5
158.818,8,7,4,2
158.818,5,6,3,0
158.819,2,3,1,-1
158.819,0,1,0,-2
158.82,-1,0,-1,-2
158.821,0,0,-1,-1
158.821,0,1,0,0
158.822,2,2,2,2
158.822,3,3,1,1
158.823,3,2,1,2
158.824,3,3,2,3
158.824,3,2,2,2
158.825,3,2,2,2
158.825,2,3,3,3
158.826,5,6,5,4
158.826,7,10,8,4
158.827,6,10,8,2
158.828,2,6,4,-1
158.828,0,3,2,-2
158.829,-2,1,0,-2
158.829,-2,1,0,-2
158.83,0,0,0,0
158.83,0,2,1,1
158.831,1,2,0,1
158.832,2,2,1,2
158.832,2,0,0,2
158.833,3,0,0,3
158.833,3,0,0,5
158.834,6,0,0,5
158.834,6,0,0,6
158.835,6,1,2,7
158.836,8,3,4,8
158.836,7,4,4,7
158.837,9,8,6,7
158.837,8,7,5,4
158.838,6,6,3,2
158.838,4,4,1,0
158.839,3,3,0,-1
158.84,0,1,0,-2
158.84,0,0,-1,-1
158.841,1,2,1,0
158.841,1,2,1,1
158.842,2,3,1,0
158.842,2,3,2,1
158.843,3,3,1,1
158.844,2,2,1,2
158.844,2,1,1,2
158.845,1,0,0,1
158.845,0,-1,1,4
158.846,3,2,5,6
158.846,6,8,10,8
158.847,7,10,10,6
158.848,5,9,8,3
158.848,2,6,5,0
158.849,0,3,1,-2
158.849,-1,0,-1,-3
158.85,-2,-1,-2,-1
158.85,0,1,0,0
158.851,2,2,0,1
158.852,4,2,0,1
158.852,3,0,-2,0
158.853,1,0,-1,2
158.853,3,0,0,4
158.854,6,2,2,5
158.855,6,3,2,6
158.855,7,2,2,6
158.856,7,3,2,6
158.856,7,4,3,6
158.857,9,7,6,6
158.857,8,7,4,3
158.858,6,5,4,2
158.859,3,3,1,0
158.859,1,3,1,0
158.86,0,1,0,-1
158.86,0,1,0,-1
158.861,0,0,0,0
158.861,0,0,1,1
158.862,0,1,2,3
158.863,2,2,2,3
158.863,1,1,2,3
158.864,3,1,2,4
158.864,4,1,3,5
158.865,5,3,3,5
158.865,6,6,4,4
158.866,7,9,7,4
158.867,6,9,6,3
158.867,6,8,3,2
158.868,7,8,1,-1
158.868,6,8,0,-5
158.869,0,3,-3,-7
158.869,-4,0,-3,-6
158.87,-5,-2,-2,-4
158.871,-3,-2,0,-1
158.871,-1,0,0,1
158.872,0,1,3,4
158.872,3,1,3,6
158.873,5,1,3,6
158.873,4,0,0,6
158.874,4,0,1,7
158.875,5,0,2,8
158.875,7,3,5,10
158.876,8,5,6,8
158.876,7,3,5,6
158.877,5,4,5,7
158.877,5,5,5,7
158.878,8,7,5,4
158.879,5,5,3,3
158.879,4,4,0,0
158.88,6,7,0,-1
158.88,6,6,-2,-3
158.881,3,3,-3,-4
158.882,1,2,-2,-5
158.882,-1,0,-2,-4
158.883,-2,-1,-2,-3
158.883,-1,-1,0,0
158.884,0,0,2,4
158.884,3,2,3,6
158.885,5,2,3,5
158.886,5,3,4,5
158.886,7,8,8,7
158.887,8,11,10,6
158.887,6,9,7,2
158.888,2,6,6,1
158.888,0,2,2,-1
158.889,-3,0,0,-2
158.89,-2,0,0,0
158.89,1,1,0,0
158.891,3,3,1,1
158.891,3,3,1,1
158.892,4,2,0,1
158.892,3,1,-2,1
158.893,5,1,0,2
158.893,4,0,0,3
158.894,4,1,0,4
158.895,4,0,0,4
158.895,5,0,0,7
158.896,7,3,3,7
158.896,10,7,5,8
158.897,9,7,6,5
158.898,4,4,5,3
158.898,1,2,3,2
158.899,1,1,3,2
158.899,1,2,3,2
158.9,1,2,2,1
158.9,1,1,1,1
158.901,1,2,2,2
158.902,3,4,2,2
158.902,3,3,2,2
158.903,3,4,2,2
158.903,3,3,1,1
158.904,1,0,0,1
158.904,1,0,0,1
158.905,2,0,1,2
158.906,2,2,2,4
158.906,4,8,7,4
158.907,6,9,8,4
158.907,4,7,5,1
158.908,2,5,4,0
158.909,0,3,2,0
158.909,0,1,0,-1
158.91,0,1,0,-1
158.91,0,0,0,0
158.911,2,1,0,1
158.911,4,2,0,1
158.912,3,0,-1,0
158.913,2,0,-2,2
158.913,4,0,-1,3
158.914,4,0,0,6
158.914,8,3,2,7
158.915,7,3,4,6
158.915,7,3,3,7
158.916,5,2,2,5
158.916,6,4,5,6
158.917,6,5,5,5
158.918,4,3,4,3
158.918,3,4,4,2
158.919,2,2,3,1
158.919,0,1,2,1
158.92,0,0,1,0
158.921,0,0,2,3
158.921,3,3,2,2
158.922,3,3,2,3
158.922,4,3,1,3
158.923,7,4,0,1
158.923,8,5,0,0
158.924,6,4,-1,0
158.925,2,1,-1,-1
158.925,1,0,0,0
158.926,2,4,3,2
158.926,4,8,8,3
158.927,3,8,8,3
158.927,3,7,5,0
158.928,3,7,4,0
158.929,1,3,0,-2
158.929,0,0,0,-2
158.93,0,0,-1,0
158.93,1,0,0,0
158.931,1,1,0,1
158.931,3,3,0,2
158.932,3,1,0,3
158.933,5,1,0,4
158.933,6,2,0,4
158.934,6,2,1,3
158.934,5,1,1,3
158.935,3,2,2,5
158.935,5,3,4,6
158.936,4,1,3,5
158.937,5,4,5,6
158.937,5,5,6,4
158.938,2,4,6,4
158.938,2,4,5,4
158.939,4,4,4,3
158.939,2,2,1,0
158.94,0,1,0,0
158.941,1,1,1,0
158.941,1,2,1,1
158.942,2,2,1,1
158.942,3,3,1,1
158.943,1,1,1,2
158.943,2,1,0,2
158.944,2,2,1,2
158.945,3,2,1,2
158.945,2,3,4,4
158.946,5,6,5,4
158.946,4,8,7,4
158.947,4,8,7,3
158.947,3,6,4,1
158.948,1,5,2,-1
158.949,0,2,1,-2
158.949,-1,0,-1,-2
158.95,0,0,-1,0
158.95,1,1,0,0
158.951,1,1,0,1
158.952,2,2,1,3
158.952,3,1,0,3
158.953,3,0,-1,3
158.953,4,0,-1,4
158.954,5,0,0,6
158.954,6,0,0,7
158.955,8,3,3,7
158.956,6,3,3,6
158.956,6,3,4,6
158.957,7,6,6,6
158.957,6,6,6,5
158.958,3,4,4,3
158.958,3,3,3,2
158.959,3,3,2,1
158.96,3,3,2,1
158.96,2,2,0,0
158.961,3,1,0,0
158.961,3,3,0,1
158.962,5,4,0,0
158.962,2,1,0,0
158.963,2,1,0,0
158.964,2,1,1,1
158.964,3,3,1,2
158.965,4,3,2,2
158.965,4,5,2,2
158.966,5,8,5,3
158.966,5,8,6,2
158.967,2,6,4,0
158.968,0,5,3,0
158.968,0,4,3,0
158.969,-1,2,2,0
158.969,-1,1,1,0
158.97,-1,0,0,0
158.971,0,0,1,1
158.971,0,0,1,3
158.972,2,1,2,5
158.972,6,2,1,4
158.973,5,1,0,5
158.973,5,0,-1,4
158.974,6,0,0,7
158.975,9,3,0,6
158.975,8,4,2,5
158.976,6,3,2,5
158.976,5,3,3,5
158.977,5,5,5,4
158.977,4,4,4,3
158.978,2,4,4,2
158.979,1,3,3,1
158.979,0,2,4,1
158.98,0,1,2,1
158.98,0,1,1,2
158.981,5,6,3,3
158.981,7,6,2,1
158.982,4,4,0,0
158.983,1,0,-1,0
158.983,0,0,0,0
158.984,1,1,0,1
158.984,3,2,0,3
158.985,7,7,3,5
158.986,11,10,4,2
158.986,8,12,6,0
158.987,2,7,3,-2
158.987,-1,3,2,-2
158.988,-2,1,1,-1
158.988,-2,-2,-3,-2
158.989,0,-1,-1,0
158.989,1,1,0,2
158.99,4,4,4,4
158.991,5,4,4,4
158.991,3,2,2,3
158.992,1,0,0,2
158.992,0,-2,0,3
158.993,2,0,1,5
158.993,4,1,3,7
158.994,6,2,3,6
158.995,5,1,2,7
158.995,8,4,3,6
158.996,9,4,3,6
158.996,8,6,4,6
158.997,9,7,4,3
158.998,4,5,3,1
158.998,0,2,2,0
158.999,-1,0,0,0
158.999,-1,0,1,0
159,0,0,1,1
159,0,0,2,1
159.001,0,1,2,2
159.002,1,3,3,3
159.002,2,2,2,3
159.003,3,3,2,3
159.003,4,3,2,4
159.004,6,5,3,4
159.004,8,6,2,2
159.005,5,4,0,1
159.006,4,4,1,2
159.006,7,10,7,1
159.007,5,9,6,0
159.007,0,4,2,-2
159.008,0,4,2,-3
159.008,-1,1,0,-3
159.009,-1,0,0,-2
159.01,-1,2,0,-1
159.01,-1,0,0,0
159.011,1,0,0,2
159.011,3,2,2,4
159.012,4,1,0,4
159.012,4,1,0,4
159.013,5,0,0,5
159.014,6,0,0,5
159.014,7,2,1,6
159.015,9,2,1,6
159.015,8,3,2,6
159.016,8,4,2,5
159.016,7,6,6,6
159.017,6,7,5,3
159.018,4,5,4,1
159.018,2,3,3,1
159.019,2,3,2,1
159.019,0,1,0,-1
159.02,0,1,1,0
159.02,0,0,1,0
159.021,0,0,1,2
159.022,1,1,2,3
159.022,3,2,2,3
159.023,4,3,2,4
159.023,6,3,1,3
159.024,6,3,0,2
159.024,4,3,0,1
159.025,3,3,1,3
159.026,5,5,3,2
159.026,5,8,6,3
159.027,4,8,5,0
159.027,2,5,3,-1
159.028,1,5,3,-1
159.028,-1,2,1,-2
159.029,-3,0,0,-1
159.03,-2,0,0,0
159.03,0,0,1,2
159.031,2,1,2,2
159.031,3,2,2,2
159.032,2,0,0,2
159.032,3,0,0,4
159.033,4,0,0,5
159.034,6,0,0,6
159.034,7,2,0,6
159.035,7,2,1,6
159.035,8,4,3,7
159.036,9,5,4,6
159.037,7,6,5,5
159.037,6,5,3,3
159.038,4,4,2,2
159.038,2,4,3,2
159.039,2,4,2,1
159.039,2,3,2,0
159.04,1,2,0,-1
159.041,0,2,1,0
159.041,0,1,1,0
159.042,0,1,1,1
159.042,0,0,1,1
159.043,0,0,2,2
159.043,0,0,3,4
159.044,0,0,4,5
159.045,2,2,6,7
159.045,5,4,5,7
159.046,8,9,8,8
159.046,12,13,8,8
159.047,17,17,5,3
159.047,15,14,0,-5
159.048,4,5,-7,-12
159.049,-6,-2,-9,-13
159.049,-8,-5,-7,-9
159.05,-7,-4,-3,-4
159.05,-3,-1,0,0
159.051,0,1,3,3
159.052,1,1,4,5
159.052,3,1,3,6
159.053,3,0,2,6
159.053,6,1,2,7
159.054,6,2,5,9
159.054,6,2,3,8
159.055,8,3,5,8
159.055,7,4,4,7
159.056,6,3,4,6
159.057,6,6,6,6
159.057,5,4,5,4
159.058,4,4,3,2
159.058,2,1,2,2
159.059,1,2,1,0
159.06,1,2,1,1
159.06,1,2,2,1
159.061,3,3,2,1
159.061,3,2,0,0
159.062,1,1,0,0
159.062,1,1,0,1
159.063,4,3,1,2
159.064,7,7,2,2
159.064,5,3,0,0
159.065,2,2,0,0
159.065,1,1,0,1
159.066,3,7,6,3
159.066,3,7,6,1
159.067,1,6,6,1
159.068,2,6,5,0
159.068,0,4,3,0
159.069,0,2,2,0
159.069,0,1,0,0
159.07,0,0,0,0
159.07,0,0,0,0
159.071,0,0,1,3
159.072,2,0,1,4
159.072,3,0,1,4
159.073,3,0,0,6
159.073,7,2,1,8
159.074,12,7,2,8
159.074,11,4,0,4
159.075,8,3,0,3
159.076,4,1,0,2
159.076,1,1,3,4
159.077,2,3,5,4
159.077,1,2,5,4
159.078,2,4,6,4
159.078,3,5,7,4
159.079,4,6,5,3
159.08,5,5,2,4
159.08,11,9,0,0
159.081,10,7,-4,-5
159.081,0,1,-5,-6
159.082,-3,-2,-4,-5
159.082,-3,-4,-3,-2
159.083,-1,0,0,0
159.084,2,2,2,3
159.084,4,4,5,6
159.085,6,4,5,6
159.085,7,5,5,6
159.086,7,10,8,6
159.086,7,11,9,5
159.087,5,8,6,1
159.088,2,6,5,0
159.088,0,3,0,-3
159.089,-4,-1,-2,-4
159.089,-4,-2,-1,-2
159.09,-2,0,0,1
159.091,0,2,2,3
159.091,1,0,1,2
159.092,0,0,0,3
159.092,2,0,1,4
159.093,4,0,2,6
159.093,6,1,1,6
159.094,6,2,1,6
159.095,6,1,1,5
159.095,7,2,1,6
159.096,8,4,4,7
159.096,8,7,6,7
159.097,7,6,5,4
159.097,3,3,3,2
159.098,1,2,3,2
159.099,3,4,3,3
159.099,3,3,2,0
159.1,0,0,0,-1
159.1,0,0,0,0
159.101,1,1,0,0
159.101,3,4,2,2
159.102,3,4,1,2
159.103,4,3,2,2
159.103,4,4,2,1
159.104,4,3,1,1
159.104,2,3,1,1
159.105,2,1,1,1
159.105,3,3,2,2
159.106,5,7,6,4
159.107,5,6,4,2
159.107,2,4,4,1
159.108,1,4,4,1
159.108,1,3,2,0
159.109,0,2,0,-1
159.109,0,1,0,0
159.11,1,1,0,0
159.111,2,1,0,1
159.111,3,2,1,2
159.112,3,1,0,3
159.112,3,0,0,3
159.113,4,0,-1,3
159.114,4,0,0,5
159.114,5,0,0,6
159.115,6,3,2,6
159.115,7,4,3,7
159.116,7,5,3,7
159.116,8,6,4,5
159.117,7,7,5,5
159.118,6,6,3,1
159.118,4,5,3,1
159.119,1,3,1,0
159.119,0,1,0,-1
159.12,-1,0,0,-1
159.12,0,0,1,0
159.121,1,2,3,2
159.122,3,4,3,2
159.122,2,2,1,2
159.123,4,3,1,2
159.123,6,4,2,2
159.124,4,4,1,1
159.124,2,1,0,2
159.125,3,2,0,1
159.126,4,5,3,2
159.126,7,9,7,4
159.127,6,10,6,2
159.127,4,7,3,0
159.128,1,5,2,-1
159.128,0,2,0,-4
159.129,-3,0,0,-3
159.13,-3,-2,-1,-1
159.13,-2,0,1,0
159.131,0,0,2,3
159.131,1,1,3,5
159.132,2,0,2,5
159.132,3,0,2,6
159.133,4,0,1,6
159.134,5,0,1,8
159.134,7,1,1,7
159.135,9,4,2,7
159.135,9,4,3,7
159.136,7,4,4,5
159.137,7,6,5,5
159.137,6,5,3,3
159.138,4,5,2,1
159.138,3,4,2,0
159.139,2,2,0,0
159.139,1,1,0,-2
159.14,-1,0,0,-1
159.141,0,1,0,0
159.141,1,3,3,2
159.142,2,2,1,2
159.142,2,1,0,2
159.143,1,1,0,2
159.143,4,3,2,3
159.144,4,3,2,2
159.144,4,3,3,3
159.145,5,5,4,3
159.146,5,9,6,4
159.146,4,5,4,1
159.147,3,4,1,0
159.147,3,5,3,0
159.148,3,7,4,0
159.149,1,4,3,-1
159.149,-1,1,0,-3
159.15,-4,-2,0,-2
159.15,-3,-2,0,0
159.151,-1,-1,1,2
159.151,3,2,1,4
159.152,3,2,2,5
159.153,6,2,2,6
159.153,8,2,0,7
159.154,10,3,0,6
159.154,10,4,-1,3
159.155,8,3,0,3
159.155,6,3,1,3
159.156,3,2,2,3
159.157,3,3,4,3
159.157,1,1,3,3
159.158,1,2,4,4
159.158,2,3,4,4
159.159,2,2,4,3
159.159,1,0,2,1
159.16,0,1,3,5
159.161,6,6,5,7
159.161,12,10,4,4
159.162,9,6,0,-1
159.162,4,2,-3,-3
159.163,0,-1,-5,-4
159.163,-1,-2,-3,-2
159.164,1,2,0,1
159.165,2,3,2,2
159.165,4,4,4,4
159.166,6,8,7,5
159.166,6,9,8,3
159.167,5,8,6,1
159.168,2,6,4,0
159.168,0,4,2,-1
159.169,0,1,0,-1
159.169,-1,0,0,-1
159.17,-1,0,0,0
159.17,0,0,1,2
159.171,3,2,2,3
159.172,3,1,1,3
159.172,2,0,1,3
159.173,3,0,0,4
159.173,3,0,0,5
159.174,5,0,1,6
159.174,5,1,2,7
159.175,6,2,2,6
159.176,6,3,4,7
159.176,8,6,5,7
159.177,8,7,6,6
159.177,6,6,4,4
159.178,7,6,2,2
159.178,5,6,1,-2
159.179,0,2,0,-2
159.18,-1,0,0,-1
159.18,-2,0,-1,-1
159.181,0,-1,0,1
159.181,1,1,1,2
159.182,3,2,2,3
159.182,4,4,4,5
159.183,5,3,2,4
159.184,5,4,1,3
159.184,4,3,1,2
159.185,4,2,0,1
159.185,4,5,3,3
159.186,7,9,7,3
159.186,4,8,5,0
159.187,2,5,4,0
159.188,1,5,3,0
159.188,0,2,1,-1
159.189,0,1,0,-2
159.189,-2,0,0,-2
159.19,-1,0,0,0
159.19,0,0,1,2
159.191,1,1,2,3
159.192,2,1,2,4
159.192,3,0,1,4
159.193,3,0,1,4
159.193,3,0,1,5
159.194,4,0,3,7
159.194,5,1,3,9
159.195,7,2,4,8
159.196,8,4,4,8
159.196,8,6,5,7
159.197,8,7,6,6
159.197,6,5,2,3
159.198,6,5,0,2
159.198,8,7,0,0
159.199,6,5,-1,-3
159.2,1,2,-2,-4
159.2,0,1,-2,-3
159.201,-1,0,-1,-2
159.201,0,1,0,0
159.202,1,2,2,1
159.203,2,3,2,3
159.203,4,5,3,3
159.204,4,5,3,1
159.204,2,2,2,2
159.205,2,2,1,1
159.205,3,3,4,3
159.206,4,6,7,3
159.207,3,7,8,3
159.207,1,6,7,2
159.208,1,5,6,1
159.208,0,3,3,0
159.209,0,1,1,0
159.209,0,2,1,0
159.21,1,0,0,0
159.211,1,1,0,1
159.211,3,2,0,2
159.212,2,0,0,2
159.212,2,0,-1,2
159.213,3,0,0,4
159.213,5,1,0,5
159.214,6,2,0,6
159.215,7,2,1,6
159.215,7,2,1,6
159.216,8,4,3,7
159.216,8,7,6,7
159.217,9,8,5,4
159.217,5,5,4,2
159.218,3,4,2,0
159.219,1,1,1,0
159.219,0,0,0,0
159.22,0,0,0,0
159.22,0,1,1,1
159.221,0,0,1,0
159.221,1,1,1,3
159.222,4,3,1,4
159.223,7,5,1,2
159.223,5,5,1,2
159.224,5,5,1,1
159.224,3,2,1,1
159.225,2,1,0,0
159.226,2,3,2,2
159.226,5,8,7,3
159.227,5,10,7,2
159.227,2,6,5,0
159.228,0,4,4,-1
159.228,-1,1,1,-2
159.229,-2,0,1,-1
159.23,-1,0,0,0
159.23,0,0,0,1
159.231,1,0,0,1
159.231,1,0,-1,2
159.232,3,0,0,4
159.232,5,0,1,6
159.233,7,2,1,6
159.233,6,1,1,6
159.234,6,0,0,6
159.235,6,1,0,7
159.235,7,4,3,8
159.236,9,6,4,7
159.236,10,10,8,6
159.237,7,8,5,2
159.238,4,5,2,0
159.238,2,4,2,-1
159.239,0,0,-2,-2
159.239,-2,-2,-3,-1
159.24,0,0,0,1
159.24,3,3,1,1
159.241,3,3,2,2
159.242,3,4,3,2
159.242,2,2,3,3
159.243,3,2,2,3
159.243,4,2,1,2
159.244,4,2,1,2
159.244,3,2,1,2
159.245,3,3,3,3
159.246,4,5,6,4
159.246,5,8,7,3
159.247,4,7,6,2
159.247,2,5,4,1
159.248,2,6,4,0
159.248,0,2,1,-2
159.249,0,2,0,-1
159.25,0,1,0,-1
159.25,0,1,0,-1
159.251,1,2,0,0
159.251,0,1,0,1
159.252,1,0,-1,1
159.252,2,-1,-1,3
159.253,4,0,0,4
159.254,4,0,1,6
159.254,4,-1,0,6
159.255,4,0,3,7
159.255,5,2,5,10
159.256,9,6,8,11
159.257,11,10,8,9
159.257,10,9,5,6
159.258,9,8,2,1
159.258,5,5,1,-1
159.259,1,2,0,-2
159.259,0,0,-2,-2
159.26,-1,-1,-1,-1
159.261,0,0,0,0
159.261,2,3,2,0
159.262,1,2,1,1
159.262,1,3,4,2
159.263,2,3,3,2
159.263,0,0,0,3
159.264,1,0,0,3
159.264,4,3,4,6
159.265,8,8,6,6
159.266,10,11,8,7
159.266,12,12,5,2
159.267,7,7,0,-3
159.267,0,2,-1,-5
159.268,-3,0,-1,-5
159.269,-3,-1,-1,-2
159.269,0,1,0,0
159.27,1,4,3,1
159.27,2,4,3,1
159.271,3,2,1,0
159.271,0,0,0,1
159.272,2,-1,0,3
159.273,4,0,-1,4
159.273,5,0,0,6
159.274,6,0,1,7
159.274,6,1,2,7
159.275,7,3,3,7
159.275,7,4,4,8
159.276,8,6,5,8
159.277,8,6,6,5
159.277,4,3,4,3
159.278,3,3,3,2
159.278,2,4,3,2
159.279,2,3,1,0
159.279,1,2,1,0
159.28,1,2,0,0
159.281,1,2,1,0
159.281,1,1,1,1
159.282,2,2,1,1
159.282,2,1,0,1
159.283,2,1,1,2
159.283,3,3,2,2
159.284,3,2,2,3
159.285,4,3,2,3
159.285,4,3,2,4
159.286,5,8,6,4
159.286,6,8,6,3
159.287,3,7,5,0
159.287,1,5,3,0
159.288,0,3,3,0
159.289,0,2,2,-1
159.289,0,1,0,-1
159.29,-1,0,0,0
159.29,-1,0,0,1
159.291,0,1,2,2
159.291,1,1,1,3
159.292,1,0,1,5
159.293,3,0,0,5
159.293,5,0,0,5
159.294,5,2,1,7
159.294,8,3,2,8
159.295,10,6,2,7
159.296,10,6,3,6
159.296,9,6,2,4
159.297,8,6,3,3
159.297,5,4,0,0
159.298,4,4,0,0
159.298,2,4,1,-1
159.299,0,2,1,0
159.3,0,0,1,0
159.3,0,0,0,0
159.301,0,1,2,1
159.301,3,4,3,2
159.302,3,4,3,2
159.302,3,3,2,1
159.303,2,1,0,2
159.304,3,1,1,2
159.304,3,1,1,3
159.305,3,2,2,3
159.305,4,5,4,4
159.306,7,9,7,4
159.306,5,9,7,2
159.307,3,5,4,0
159.308,1,6,4,0
159.308,0,2,1,-2
159.309,-2,-1,0,-2
159.309,-2,-1,0,-1
159.31,0,0,0,1
159.31,1,2,1,2
159.311,3,3,3,3
159.312,3,1,1,3
159.312,3,0,0,3
159.313,3,-1,0,4
159.313,4,0,1,6
159.314,6,1,1,7
159.315,8,2,1,6
159.315,8,3,2,7
159.316,8,3,2,6
159.316,8,7,5,6
159.317,7,6,5,4
159.317,4,4,3,2
159.318,0,1,2,0
159.318,0,1,2,1
159.319,0,0,2,0
159.32,0,1,2,2
159.32,2,3,3,3
159.321,3,4,2,2
159.321,5,5,3,4
159.322,9,8,1,1
159.323,6,4,-2,-2
159.323,2,2,-2,-1
159.324,0,0,-1,-1
159.324,0,0,-1,0
159.325,1,1,1,2
159.325,3,4,4,4
159.326,7,10,9,5
159.327,6,11,8,3
159.327,3,6,4,0
159.328,1,4,3,0
159.328,0,3,1,-1
159.329,0,1,1,-1
159.329,0,2,0,0
159.33,0,1,0,0
159.331,0,1,1,0
159.331,0,0,0,2
159.332,2,0,0,3
159.332,3,0,0,4
159.333,3,-1,0,5
159.333,5,0,0,5
159.334,6,2,2,6
159.335,6,2,4,7
159.335,6,2,4,7
159.336,7,4,5,7
159.336,6,4,6,5
159.337,4,4,5,6
159.337,5,5,5,5
159.338,6,6,3,4
159.339,6,5,1,1
159.339,5,4,-1,0
159.34,4,2,-3,-2
159.34,2,1,-3,-2
159.341,0,0,-2,-2
159.341,0,0,0,0
159.342,0,0,2,2
159.343,0,0,2,3
159.343,2,3,4,4
159.344,4,5,6,5
159.344,5,5,4,5
159.345,5,6,4,3
159.345,5,7,5,2
159.346,4,7,6,1
159.347,1,5,5,0
159.347,0,5,3,0
159.348,2,5,2,0
159.348,1,3,0,-2
159.349,0,2,0,-2
159.349,-1,0,0,-1
159.35,-1,0,0,0
159.351,0,0,0,1
159.351,1,0,0,2
159.352,2,0,1,4
159.352,3,0,1,6
159.353,5,0,1,6
159.354,7,1,1,7
159.354,8,1,0,6
159.355,7,2,1,6
159.355,9,5,4,9
159.356,13,8,4,6
159.356,9,8,5,4
159.357,5,4,2,1
159.358,2,3,2,0
159.358,1,3,1,0
159.359,0,2,1,0
159.359,1,2,0,0
159.36,0,2,1,0
159.36,1,2,1,0
159.361,1,1,1,1
159.362,1,1,0,1
159.362,0,0,0,2
159.363,1,0,1,2
159.363,2,0,2,5
159.364,4,3,4,6
159.364,5,3,3,5
159.365,5,4,4,5
159.366,6,8,8,6
159.366,6,9,7,3
159.367,3,7,5,1
159.367,2,5,4,0
159.368,1,5,2,-2
159.368,0,2,0,-3
159.369,-1,0,-1,-3
159.37,-1,0,-1,-2
159.37,-1,0,0,-1
159.371,0,0,0,1
159.371,1,1,0,2
159.372,2,0,0,4
159.373,3,0,0,5
159.373,4,0,0,6
159.374,8,2,2,7
159.374,9,4,3,7
159.375,10,6,4,7
159.375,9,6,4,5
159.376,7,5,4,4
159.377,6,4,3,3
159.377,4,0,-1,0
159.378,2,0,0,1
159.378,2,3,2,2
159.379,2,3,3,2
159.379,1,3,3,2
159.38,2,1,1,1
159.381,2,2,1,1
159.381,1,1,1,1
159.382,1,2,1,1
159.382,3,3,3,4
159.383,4,4,3,3
159.383,5,4,2,2
159.384,4,1,0,1
159.385,4,2,0,2
159.385,7,7,2,4
159.386,11,13,5,2
159.386,6,8,3,-2
159.387,0,3,0,-4
159.387,-5,0,1,-3
159.388,-6,-2,1,-1
159.389,-5,0,3,2
159.389,0,1,4,3
159.39,2,2,4,5
159.39,5,4,4,5
159.391,7,5,4,5
159.391,6,3,0,2
159.392,4,1,0,2
159.393,4,0,-2,2
159.393,4,0,-2,2
159.394,4,0,-1,4
159.394,4,0,0,4
159.395,6,2,2,7
159.395,8,5,4,7
159.396,9,7,5,5
159.397,7,6,5,5
159.397,5,5,4,3
159.398,3,5,3,1
159.398,2,3,2,1
159.399,2,4,2,0
159.4,1,2,0,0
159.4,0,1,0,-1
159.401,0,1,1,0
159.401,0,1,1,1
159.402,1,1,2,2
159.402,1,1,1,1
159.403,1,0,0,2
159.404,1,0,2,4
159.404,4,2,3,5
159.405,5,4,4,7
159.405,7,7,5,6
159.406,10,11,8,5
159.406,8,11,6,1
159.407,3,6,2,-2
159.407,0,3,2,-3
159.408,-3,0,-1,-4
159.409,-4,-2,-1,-2
159.409,-2,0,0,0
159.41,1,1,0,2
159.41,4,3,2,3
159.411,6,4,1,2
159.411,2,0,0,1
159.412,1,0,0,3
159.413,3,0,0,4
159.413,6,1,0,5
159.414,6,1,0,6
159.414,6,3,2,6
159.415,7,3,3,6
159.416,7,3,2,6
159.416,8,6,5,6
159.417,6,6,4,4
159.417,5,5,3,2
159.418,3,4,3,1
159.418,2,2,2,0
159.419,1,2,1,0
159.42,0,2,1,0
159.42,0,2,1,0
159.421,0,1,2,1
159.421,1,1,1,1
159.422,0,0,1,2
159.422,1,0,1,2
159.423,3,2,2,2
159.424,2,1,3,4
159.424,2,0,3,4
159.425,3,1,4,5
159.425,5,6,6,7
159.426,9,10,10,7
159.426,9,11,7,6
159.427,11,10,3,0
159.428,6,8,0,-5
159.428,-1,0,-3,-7
159.429,-4,-2,-4,-6
159.429,-3,-1,-4,-4
159.43,-1,0,-1,-1
159.431,0,1,0,0
159.431,2,1,1,3
159.432,2,0,0,3
159.432,3,-1,0,4
159.433,4,0,0,6
159.433,6,2,2,8
159.434,7,1,2,8
159.435,9,2,3,8
159.435,8,4,4,7
159.436,7,3,3,7
159.436,8,6,6,7
159.437,8,7,5,5
159.437,5,6,4,3
159.438,3,5,4,0
159.439,1,3,2,-1
159.439,-1,0,0,-1
159.44,0,0,0,-1
159.44,0,0,0,1
159.441,3,3,1,1
159.441,4,4,1,0
159.442,1,2,2,1
159.443,0,0,0,1
159.443,0,0,1,4
159.444,3,0,2,4
159.444,4,3,3,4
159.445,5,4,4,6
159.445,8,9,7,7
159.446,11,13,8,5
159.447,10,12,4,0
159.447,3,7,1,-4
159.448,0,5,1,-5
159.448,-2,1,0,-6
159.449,-5,-1,-2,-5
159.449,-4,-3,-1,-3
159.45,-2,0,0,0
159.451,1,1,2,3
159.451,3,2,3,5
159.452,5,2,1,5
159.452,6,2,0,5
159.453,7,1,0,7
159.453,11,3,0,5
159.454,10,2,-1,4
159.455,6,0,0,2
159.455,3,0,2,6
159.456,5,3,4,6
159.456,5,6,8,7
159.457,4,5,7,6
159.457,3,4,5,4
159.458,3,2,4,3
159.459,3,3,3,2
159.459,3,3,2,1
159.46,3,3,1,0
159.46,1,2,0,0
159.461,0,1,0,0
159.461,1,1,0,0
159.462,0,0,0,1
159.463,2,2,1,2
159.463,3,3,3,4
159.464,4,3,2,3
159.464,4,2,1,2
159.465,2,2,2,3
159.465,6,8,6,4
159.466,8,10,8,5
159.467,6,9,6,1
159.467,1,5,2,-1
159.468,0,2,0,-3
159.468,-2,0,0,-3
159.469,-1,0,0,-2
159.469,0,1,0,-1
159.47,0,0,1,1
159.471,1,1,2,2
159.471,1,1,1,2
159.472,2,0,1,4
159.472,3,0,2,5
159.473,4,0,0,6
159.474,5,0,2,6
159.474,5,1,2,8
159.475,7,2,3,8
159.475,8,4,4,7
159.476,8,5,4,7
159.476,8,7,5,6
159.477,8,6,3,2
159.478,4,5,3,0
159.478,1,3,2,0
159.479,1,3,0,-1
159.479,0,2,0,-1
159.48,1,2,0,0
159.481,2,2,0,0
159.481,0,1,1,0
159.482,1,2,1,0
159.482,2,1,0,2
159.483,3,2,0,2
159.483,3,2,2,4
159.484,5,3,2,3
159.485,6,4,2,2
159.485,5,5,3,2
159.486,6,8,6,3
159.486,5,9,6,2
159.487,1,6,5,0
159.487,0,4,3,0
159.488,0,4,3,-1
159.489,-1,2,1,-2
159.489,-3,-1,0,-2
159.49,-2,-3,-1,0
159.49,0,-2,0,3
159.491,2,0,1,5
159.491,4,1,1,4
159.492,5,0,0,6
159.493,8,3,2,8
159.493,10,5,2,7
159.494,12,6,1,5
159.494,10,4,0,1
159.495,5,3,0,2
159.495,4,2,0,3
159.496,6,4,3,3
159.497,3,4,4,2
159.497,2,3,3,2
159.498,2,2,3,3
159.498,1,1,2,2
159.499,1,1,2,1
159.499,0,2,2,1
159.5,2,3,3,2
159.501,3,4,4,3
159.501,6,7,4,3
159.502,5,5,3,1
159.502,2,2,0,-1
159.503,1,0,-2,0
159.503,3,2,0,1
159.504,4,4,1,2
159.505,3,1,0,1
159.505,2,2,2,2
159.506,5,8,6,4
159.506,4,9,7,3
159.507,3,7,6,1
159.507,0,5,4,0
159.508,-1,1,1,-2
159.509,-2,0,0,0
159.509,0,1,0,0
159.51,1,2,1,1
159.51,2,2,1,2
159.511,3,2,0,2
159.511,2,0,0,2
159.512,3,0,0,4
159.513,5,0,0,3
159.513,4,0,0,4
159.514,5,0,1,5
159.514,6,2,3,8
159.515,7,4,4,8
159.515,7,3,4,7
159.516,7,6,5,6
159.517,7,6,5,5
159.517,6,6,4,3
159.518,4,4,2,0
159.518,3,4,1,0
159.519,3,4,0,-1
159.52,0,2,0,-1
159.52,0,1,0,0
159.521,0,1,0,0
159.521,0,0,0,0
159.522,0,0,0,1
159.522,0,0,1,2
159.523,0,0,2,4
159.524,4,1,3,6
159.524,5,2,3,6
159.525,5,4,5,6
159.525,9,9,7,7
159.526,8,12,9,4
159.526,4,9,8,2
159.527,1,4,3,0
159.527,0,4,2,0
159.528,0,3,1,-2
159.529,-1,1,0,-3
159.529,-2,0,0,-3
159.53,-2,0,0,0
159.53,0,0,-1,0
159.531,2,2,1,2
159.532,1,0,0,2
159.532,1,-2,0,4
159.533,2,-1,0,6
159.533,4,0,1,8
159.534,8,2,2,9
159.534,10,5,3,9
159.535,11,6,3,8
159.536,11,8,4,6
159.536,11,9,5,5
159.537,8,8,3,1
159.537,3,4,1,0
159.538,1,2,0,-1
159.538,0,2,0,-1
159.539,0,2,0,-1
159.54,0,2,1,0
159.54,0,1,1,1
159.541,2,3,1,1
159.541,2,2,0,0
159.542,1,0,0,1
159.542,1,0,0,1
159.543,2,0,1,3
159.544,4,2,2,4
159.544,3,3,3,5
159.545,5,4,5,5
159.545,7,7,6,5
159.546,7,9,8,4
159.546,4,7,6,1
159.547,1,4,3,0
159.548,1,4,3,0
159.548,0,2,0,-2
159.549,0,1,0,-1
159.549,-1,0,-1,-1
159.55,0,0,0,0
159.551,0,1,0,1
159.551,2,0,0,2
159.552,2,0,0,3
159.552,2,0,0,5
159.553,4,0,0,6
159.553,6,0,1,8
159.554,7,1,1,6
159.555,8,3,3,8
159.555,9,4,3,7
159.556,9,5,4,6
159.556,8,8,5,5
159.557,5,5,3,3
159.557,4,4,2,1
159.558,2,4,1,0
159.559,2,2,1,0
159.559,0,1,0,-1
159.56,0,0,0,0
159.56,1,1,1,0
159.561,2,2,2,1
159.561,2,3,1,2
159.562,3,3,2,2
159.563,3,3,1,1
159.563,3,3,2,3
159.564,4,3,2,3
159.564,4,3,1,2
159.565,4,3,2,3
159.565,6,7,5,4
159.566,5,8,7,2
159.567,3,6,5,1
159.567,1,6,5,0
159.568,0,4,2,-1
159.568,-1,1,0,-2
159.569,-1,0,0,-1
159.569,0,0,0,0
159.57,0,0,0,1
159.571,2,2,1,2
159.571,3,1,1,3
159.572,3,0,0,4
159.572,4,0,0,5
159.573,5,1,0,5
159.573,6,0,0,5
159.574,5,0,1,6
159.575,6,2,2,6
159.575,6,3,4,7
159.576,6,4,5,6
159.576,5,4,6,5
159.577,2,3,5,4
159.577,3,4,6,5
159.578,3,3,5,4
159.579,3,3,2,1
159.579,2,2,2,1
159.58,3,3,1,2
159.58,5,4,0,1
159.581,8,7,0,0
159.582,7,5,-1,-2
159.582,2,2,-3,-3
159.583,0,0,-2,-2
159.583,0,0,-1,0
159.584,1,0,0,1
159.584,2,2,2,4
159.585,5,5,5,5
159.586,8,10,9,5
159.586,5,8,7,2
159.587,3,5,4,0
159.587,1,6,4,0
159.588,1,4,2,-1
159.588,-1,2,1,-1
159.589,-1,0,0,-2
159.59,-2,-1,0,0
159.59,0,1,1,1
159.591,1,1,1,3
159.591,2,1,2,4
159.592,3,0,1,4
159.592,5,0,0,5
159.593,5,0,0,6
159.594,6,1,1,6
159.594,7,2,1,6
159.595,7,3,3,7
159.595,7,3,3,6
159.596,8,6,4,7
159.596,7,6,5,5
159.597,5,5,3,1
159.598,3,3,3,0
159.598,1,2,2,0
159.599,1,2,1,0
159.599,0,1,1,0
159.6,0,1,0,1
159.6,2,2,2,1
159.601,2,2,2,1
159.602,1,2,1,2
159.602,2,0,1,2
159.603,3,2,1,3
159.603,5,3,1,3
159.604,6,5,1,3
159.604,4,4,2,1
159.605,1,3,4,2
159.606,3,6,7,4
159.606,3,7,7,2
159.607,2,5,4,0
159.607,2,6,4,1
159.608,2,4,2,0
159.609,1,2,0,-1
159.609,-1,0,-2,-2
159.61,0,0,0,0
159.61,1,0,0,0
159.611,2,1,0,1
159.611,1,0,0,2
159.612,3,0,0,4
159.613,3,0,0,4
159.613,5,0,1,7
159.614,6,0,1,7
159.614,8,3,2,7
159.615,8,3,4,8
159.615,8,5,3,7
159.616,8,6,4,5
159.617,6,6,4,5
159.617,7,7,4,3
159.618,6,6,2,0
159.618,4,4,0,-1
159.619,1,2,0,-3
159.619,-2,-1,-1,-2
159.62,-3,-2,0,0
159.621,-1,0,1,2
159.621,3,2,2,4
159.622,6,6,3,4
159.622,7,6,3,3
159.623,4,4,1,1
159.623,3,2,0,1
159.624,3,2,0,2
159.625,4,3,2,3
159.625,4,5,4,2
159.626,5,8,7,3
159.626,4,8,6,1
159.627,2,5,3,0
159.627,0,4,2,-1
159.628,0,2,1,-2
159.629,-1,0,0,-1
159.629,0,1,0,0
159.63,0,0,1,0
159.63,0,0,0,1
159.631,1,0,1,3
159.631,1,0,1,3
159.632,0,-1,1,6
159.633,4,0,3,8
159.633,6,1,2,8
159.634,8,2,2,8
159.634,8,3,2,6
159.635,8,2,2,6
159.635,7,4,4,7
159.636,10,7,5,6
159.637,8,7,3,2
159.637,4,5,2,1
159.638,2,3,2,0
159.638,1,4,1,0
159.639,0,0,0,-1
159.64,-1,0,-1,-1
159.64,0,0,0,1
159.641,0,2,2,2
159.641,2,2,2,2
159.642,2,2,2,2
159.642,3,2,2,3
159.643,5,4,3,4
159.644,5,4,2,4
159.644,5,4,1,2
159.645,5,3,1,2
159.645,6,7,4,3
159.646,6,9,6,2
159.646,3,6,4,0
159.647,1,4,3,-1
159.648,0,2,1,-2
159.648,-2,0,0,-2
159.649,-3,0,1,0
159.649,-1,0,0,0
159.65,0,0,1,2
159.65,3,4,4,4
159.651,5,4,3,3
159.652,3,0,0,2
159.652,2,0,0,3
159.653,4,0,-1,5
159.653,7,0,-1,5
159.654,8,1,0,5
159.654,8,3,0,7
159.655,9,5,3,6
159.656,8,5,4,6
159.656,7,6,6,6
159.657,6,5,4,3
159.657,3,5,5,2
159.658,3,5,4,0
159.658,1,3,2,0
159.659,1,2,1,0
159.66,0,2,0,0
159.66,1,2,0,-1
159.661,0,1,0,-1
159.661,0,0,0,0
159.662,0,0,2,3
159.662,2,1,2,4
159.663,3,3,3,5
159.664,6,4,3,6
159.664,7,6,3,6
159.665,9,7,2,3
159.665,10,12,5,1
159.666,6,10,3,-1
159.666,1,5,1,-2
159.667,0,3,0,-3
159.668,-1,1,0,-4
159.668,-3,0,0,-2
159.669,-2,0,0,-1
159.669,-3,-1,0,0
159.67,0,0,2,3
159.67,2,1,2,3
159.671,2,0,2,5
159.672,4,2,3,7
159.672,6,3,3,7
159.673,6,1,2,7
159.673,5,1,0,6
159.674,4,0,0,6
159.675,8,3,3,7
159.675,9,6,5,6
159.676,6,5,4,3
159.676,2,2,3,2
159.677,0,0,2,3
159.677,3,3,5,5
159.678,4,5,4,4
159.679,7,8,5,4
159.679,8,8,3,0
159.68,3,4,0,-2
159.68,-1,0,-1,-3
159.681,0,0,-1,-2
159.681,-1,-1,-1,0
159.682,1,1,1,1
159.683,2,2,2,2
159.683,4,4,3,4
159.684,4,4,3,3
159.684,3,3,2,3
159.685,4,3,2,3
159.685,6,8,7,4
159.686,6,9,6,2
159.687,2,5,4,0
159.687,-1,3,4,0
159.688,-1,1,3,0
159.688,0,1,2,0
159.689,0,1,0,0
159.689,1,2,0,1
159.69,2,2,1,2
159.691,4,3,0,3
159.691,5,2,0,2
159.692,4,0,-2,0
159.692,3,-1,-2,2
159.693,4,0,-1,4
159.694,6,0,0,5
159.694,5,1,1,7
159.695,7,3,3,7
159.695,8,3,3,8
159.696,9,8,6,6
159.696,7,7,6,5
159.697,5,6,4,3
159.698,4,4,2,0
159.698,1,1,0,0
159.699,0,1,0,0
159.699,0,0,0,0
159.7,0,0,0,0
159.7,1,1,0,1
159.701,1,2,2,2
159.702,4,4,3,3
159.702,3,3,3,3
159.703,3,3,2,3
159.703,3,3,2,2
159.704,1,1,1,2
159.704,2,2,3,4
159.705,4,5,5,4
159.706,7,10,7,3
159.706,5,8,7,2
159.707,1,6,5,0
159.707,0,5,4,0
159.708,-1,1,1,-2
159.708,-1,0,0,-1
159.709,0,1,0,0
159.71,0,0,0,0
159.71,1,1,0,2
159.711,3,2,0,2
159.711,2,0,0,1
159.712,0,-1,0,3
159.712,1,-2,0,5
159.713,5,0,2,7
159.714,6,0,1,8
159.714,8,2,2,8
159.715,9,4,5,10
159.715,11,7,4,9
159.716,13,10,5,8
159.716,16,13,3,3
159.717,11,10,0,-3
159.718,1,3,-2,-5
159.718,-3,-1,-3,-5
159.719,-4,-1,-2,-4
159.719,-3,-1,-1,-2
159.72,-1,1,1,2
159.721,3,4,4,3
159.721,4,4,3,3
159.722,3,3,2,2
159.722,2,1,2,2
159.723,2,1,2,4
159.723,5,5,4,5
159.724,5,3,2,3
159.725,4,3,1,2
159.725,4,4,3,2
159.726,5,8,7,3
159.726,5,9,7,2
159.727,3,5,4,0
159.727,1,3,2,-2
159.728,-2,1,0,-3
159.729,-3,0,0,-2
159.729,-3,-1,1,0
159.73,0,1,3,2
159.73,1,1,2,3
159.731,1,0,3,4
159.731,1,0,1,4
159.732,2,0,2,5
159.733,3,0,1,6
159.733,5,1,1,9
159.734,11,4,0,9
159.734,17,9,1,6
159.735,15,9,0,3
159.735,8,4,-1,0
159.736,5,3,0,0
159.737,1,1,0,-1
159.737,0,2,1,0
159.738,0,2,3,1
159.738,2,4,5,3
159.739,4,5,4,1
159.739,1,2,1,0
159.74,0,1,1,0
159.741,0,1,1,2
159.741,2,2,2,3
159.742,2,1,2,2
159.742,1,1,1,2
159.743,2,2,2,3
159.744,3,1,2,4
159.744,5,4,3,4
159.745,5,4,3,4
159.745,7,8,7,4
159.746,6,10,6,2
159.746,3,7,5,0
159.747,2,6,3,0
159.747,1,7,4,-2
159.748,-1,1,0,-4
159.749,-5,-6,-6,-4
159.749,-2,-4,-3,0
159.75,0,0,1,3
159.75,3,3,4,5
159.751,4,2,3,4
159.752,3,0,1,4
159.752,3,0,0,4
159.753,3,0,0,6
159.753,6,1,2,7
159.754,6,0,2,8
159.754,8,4,4,9
159.755,11,7,3,8
159.755,9,5,2,3
159.756,7,5,2,3
159.757,5,5,2,2
159.757,3,4,2,0
159.758,0,2,2,0
159.758,0,2,2,0
159.759,0,1,1,0
159.76,0,2,2,0
159.76,0,2,2,1
159.761,1,3,3,2
159.761,2,3,2,1
159.762,1,1,2,2
159.762,3,3,2,2
159.763,3,3,2,2
159.764,5,4,2,3
159.764,5,4,1,1
159.765,5,4,1,2
159.765,6,7,5,3
159.766,6,7,4,2
159.766,3,5,1,-1
159.767,1,4,2,-1
159.768,0,3,2,-1
159.768,0,2,2,0
159.769,0,2,1,0
159.769,0,0,0,0
159.77,0,0,0,1
159.77,0,0,2,3
159.771,1,1,3,4
159.772,3,0,1,6
159.772,4,0,1,6
159.773,6,0,1,6
159.773,6,1,1,7
159.774,8,2,2,7
159.774,9,4,2,6
159.775,8,4,3,6
159.776,8,6,4,6
159.776,9,7,2,3
159.777,7,5,2,0
159.777,4,4,0,-1
159.778,0,1,0,-1
159.778,0,0,0,-1
159.779,1,2,0,0
159.78,1,3,1,0
159.78,1,2,2,0
159.781,2,3,3,2
159.781,1,2,3,2
159.782,1,1,1,2
159.783,1,1,2,3
159.783,3,2,2,4
159.784,3,2,2,3
159.784,4,2,1,3
159.785,5,4,3,5
159.785,8,10,8,5
159.786,7,9,7,2
159.787,3,6,4,0
159.787,1,5,2,-1
159.788,-2,1,0,-3
159.788,-5,-2,0,-2
159.789,-4,-1,0,0
159.789,-3,-1,1,2
159.79,-1,0,3,4
159.791,2,1,4,5
159.791,4,3,3,7
159.792,9,5,2,7
159.792,10,5,0,6
159.793,11,5,-1,3
159.793,9,4,-2,0
159.794,5,1,-4,0
159.795,3,0,-2,2
159.795,3,0,0,3
159.796,6,4,3,4
159.796,5,4,4,5
159.797,5,6,4,3
159.797,4,6,6,3
159.798,4,6,5,2
159.799,1,3,2,0
159.799,0,0,0,0
159.8,0,0,0,1
159.8,2,2,2,2
159.801,3,3,3,3
159.801,3,2,2,2
159.802,2,2,1,1
159.803,3,2,1,2
159.803,3,2,1,3
159.804,3,2,2,3
159.804,5,3,2,3
159.805,7,6,3,3
159.805,7,10,7,3
159.806,5,8,5,0
159.807,3,6,3,0
159.807,1,5,1,-2
159.808,-1,1,0,-3
159.808,-4,-2,0,-1
159.809,-2,0,0,-1
159.809,-2,-1,0,1
159.81,0,0,2,3
159.811,4,3,5,7
159.811,5,3,2,4
159.812,3,0,0,4
159.812,2,-2,0,5
159.813,3,-1,0,6
159.814,6,0,1,7
159.814,7,1,2,7
159.815,9,4,3,8
159.815,8,4,4,7
159.816,8,5,5,5
159.816,7,6,5,5
159.817,7,6,4,3
159.818,6,7,3,0
159.818,3,4,1,-2
159.819,0,0,0,-2
159.819,0,0,0,-1
159.82,0,0,0,0
159.82,2,2,1,1
159.821,3,4,1,2
159.822,4,3,1,1
159.822,4,3,0,0
159.823,3,1,-1,1
159.823,5,3,0,1
159.824,4,4,1,0
159.824,3,3,2,2
159.825,4,6,6,4
159.826,5,9,8,3
159.826,3,7,6,2
159.827,2,5,4,0
159.827,2,6,5,0
159.828,0,4,3,-1
159.828,-1,0,0,-1
159.829,-3,-2,-1,-1
159.83,-1,0,0,1
159.83,1,1,1,2
159.831,2,0,0,3
159.831,2,0,0,2
159.832,3,0,0,4
159.832,6,2,1,7
159.833,11,5,1,5
159.834,8,2,0,4
159.834,7,3,1,4
159.835,6,3,2,5
159.835,6,3,2,6
159.836,9,8,6,6
159.837,9,8,4,3
159.837,5,4,1,0
159.838,2,1,1,0
159.838,1,2,0,0
159.839,0,1,0,0
159.839,0,1,1,0
159.84,0,1,2,1
159.84,0,0,2,2
159.841,0,0,4,3
159.842,0,1,3,3
159.842,2,2,4,4
159.843,4,3,4,6
159.843,5,4,3,5
159.844,5,3,1,5
159.845,8,5,0,2
159.845,8,9,3,1
159.846,7,9,5,1
159.846,4,7,3,0
159.847,3,6,1,-3
159.847,-2,1,0,-4
159.848,-3,-1,-1,-4
159.849,-4,-1,0,-1
159.849,-3,0,2,1
159.85,0,1,2,2
159.85,2,2,3,2
159.851,2,3,4,4
159.851,3,2,2,5
159.852,4,0,1,5
159.853,4,-2,-1,4
159.853,4,-1,-2,5
159.854,8,1,0,7
159.854,11,6,3,9
159.855,12,7,4,6
159.855,8,6,4,5
159.856,6,5,2,2
159.857,4,4,2,1
159.857,3,3,3,1
159.858,1,2,2,2
159.858,4,3,2,0
159.859,1,2,0,0
159.859,1,1,0,0
159.86,2,2,0,0
159.861,2,3,2,1
159.861,2,3,1,1
159.862,1,3,2,2
159.862,2,2,0,2
159.863,4,3,1,2
159.863,5,4,2,3
159.864,5,4,1,2
159.865,6,4,1,0
159.865,4,7,5,1
159.866,3,7,6,2
159.866,1,4,4,0
159.867,-1,1,5,0
159.868,-5,-2,4,0
159.868,-4,-1,4,2
159.869,-2,0,4,3
159.869,0,0,3,5
159.87,5,5,4,8
159.87,11,9,3,6
159.871,12,8,0,0
159.872,5,1,-5,-3
159.872,1,-3,-5,-2
159.873,0,-2,-3,0
159.873,1,-1,-1,1
159.874,0,-1,0,5
159.874,5,1,3,8
159.875,8,5,5,8
159.876,8,6,5,9
159.876,9,8,7,8
159.877,8,7,5,5
159.877,6,7,5,4
159.878,5,6,4,2
159.878,4,5,1,1
159.879,3,4,0,-2
159.88,0,2,0,-3
159.88,-1,0,0,0
159.881,1,3,2,1
159.881,2,3,1,0
159.882,0,0,0,0
159.882,-1,-1,0,2
159.883,2,1,2,4
159.884,4,3,2,3
159.884,4,3,3,5
159.885,8,7,4,5
159.885,11,13,7,3
159.886,6,8,5,0
159.886,0,4,2,-2
159.887,-2,2,2,-2
159.888,-3,0,2,-1
159.888,-3,0,1,0
159.889,0,0,0,1
159.889,0,0,1,1
159.89,-1,-1,2,3
159.891,0,0,5,6
159.891,1,0,5,6
159.892,2,0,4,8
159.892,6,2,4,8
159.893,8,2,1,7
159.893,9,3,0,6
159.894,8,2,-1,4
159.895,8,2,0,3
159.895,6,2,0,3
159.896,6,4,3,4
159.896,6,7,5,4
159.897,5,5,3,2
159.897,5,5,2,1
159.898,3,3,0,0
159.899,2,2,0,0
159.899,2,3,1,0
159.9,0,1,0,0
159.9,0,2,2,1
159.901,0,2,2,1
159.901,0,0,1,1
159.902,0,0,3,3
159.902,2,2,4,4
159.903,5,5,4,3
159.904,3,2,1,1
159.904,3,0,0,4
159.905,7,3,0,5
159.905,14,10,2,4
159.906,12,13,5,0
159.906,4,8,5,0
159.907,1,6,4,0
159.908,1,4,1,-3
159.908,0,3,-1,-6
159.909,-1,1,-2,-4
159.909,0,2,-1,-2
159.91,0,0,-3,-2
159.911,-1,0,0,-1
159.911,-2,-2,0,1
159.912,-2,-3,3,6
159.912,1,-1,5,10
159.913,6,3,7,11
159.913,6,4,6,9
159.914,5,2,4,6
159.915,3,0,2,6
159.915,5,1,3,8
159.916,11,7,5,9
159.916,11,6,1,5
159.917,9,4,-1,2
159.918,8,6,0,2
159.918,7,6,0,1
159.919,6,6,2,0
159.919,3,4,2,0
159.92,0,2,1,-1
159.92,-3,1,2,-1
159.921,-5,-2,2,1
159.922,-3,-3,0,2
159.922,0,-3,-1,2
159.923,3,2,2,4
159.923,8,7,3,4
159.924,7,5,2,3
159.924,7,4,1,5
159.925,9,7,2,5
159.925,12,13,6,2
159.926,7,11,5,0
159.927,3,8,3,-4
159.927,-1,4,1,-5
159.928,-2,0,-3,-7
159.928,-4,-4,-7,-5
159.929,-2,-4,-8,-5
159.93,0,-1,-5,-3
159.93,4,5,-1,-2
159.931,3,4,1,0
159.931,3,3,6,9
159.932,9,6,7,12
159.932,12,9,8,10
159.933,8,4,4,7
159.934,5,0,0,4
159.934,4,0,-1,4
159.935,7,4,3,8
159.935,10,5,1,4
159.936,6,4,4,5
159.936,4,3,4,5
159.937,5,5,5,5
159.938,4,2,0,-1
159.938,-1,0,0,-2
159.939,0,3,3,1
159.939,0,1,3,3
159.94,2,2,4,5
159.94,3,3,2,3
159.941,5,3,-1,-1
159.942,3,3,-4,-5
159.942,1,2,-5,-5
159.943,2,2,-4,-4
159.943,2,0,-5,0
159.944,7,1,-3,5
159.944,14,8,3,9
159.945,15,14,13,10
159.946,6,8,12,7
159.946,0,3,10,6
159.947,-2,4,14,7
159.947,-4,4,15,4
159.948,-12,-4,9,1
159.949,-14,-8,6,1
159.949,-10,-5,3,0
159.95,-9,-8,-1,-3
159.95,-8,-8,-6,-4
159.951,0,-3,-8,-3
159.951,7,3,-7,0
159.952,13,4,-9,-2
159.953,11,1,-16,-8
159.953,9,0,-18,-8
159.954,14,6,-14,-2
159.954,24,18,-3,6
159.955,28,26,11,16
159.955,30,29,20,20
159.956,27,25,15,13
159.956,17,16,7,2
159.957,6,8,4,0
159.958,-1,2,6,1
159.958,-4,3,18,12
159.959,-7,0,24,17
159.959,-10,-5,22,14
159.96,-19,-18,10,6
159.961,-23,-21,7,2
159.961,-28,-23,9,6
159.962,-25,-24,2,3
159.962,-20,-18,4,4
159.963,-13,-13,2,3
159.963,-11,-11,1,0
159.964,-9,-8,2,4
159.965,0,4,12,12
159.965,11,14,11,6
159.966,9,12,2,-5
159.966,3,9,-3,-10
159.967,2,11,1,-5
159.967,6,16,8,2
159.968,11,19,11,7
159.969,15,12,-2,0
159.969,17,7,-17,-8
159.97,20,11,-16,-4
159.97,24,12,-18,-7
159.971,22,6,-26,-15
159.971,15,4,-25,-15
159.972,12,4,-16,-4
159.973,17,6,-12,-1
159.973,16,10,-1,6
159.974,18,15,10,15
159.974,19,15,11,12
159.975,13,12,9,8
159.975,9,8,5,2
159.976,0,2,5,0
159.977,-4,0,11,9
159.977,-1,1,19,20
159.978,1,4,29,25
159.978,-4,-3,23,17
159.979,-17,-17,10,5
159.979,-23,-21,4,0
159.98,-24,-16,12,6
159.981,-20,-15,10,5
159.981,-18,-17,0,-2
159.982,-14,-12,0,-3
159.982,-10,-4,4,-1
159.983,-8,-1,7,1
159.984,-6,-3,4,3
159.984,-4,-6,0,4
159.985,0,-1,1,9
159.985,14,11,6,13
159.986,26,22,9,10
159.986,21,17,1,3
159.987,18,10,-11,-6
159.988,19,15,-12,-11
159.988,16,14,-15,-16
159.989,12,12,-19,-20
159.989,12,14,-12,-11
159.99,18,21,1,0
159.99,18,19,2,0
159.991,11,12,4,3
159.992,8,5,-1,2
159.992,6,1,-1,3
159.993,7,3,1,4
159.993,5,1,-1,-1
159.994,0,0,3,3
159.994,-1,4,18,18
159.995,1,0,14,14
159.996,-2,-4,8,6
159.996,-11,-9,9,7
159.997,-11,-10,8,10
159.997,-3,-3,11,12
159.998,2,1,11,11
159.998,4,0,0,0
159.999,0,-6,-15,-17
160,-11,-11,-19,-18
160,-6,-3,-14,-12
160.001,3,4,-9,-6
160.001,13,13,-2,2
160.002,21,20,6,8
160.003,21,17,3,4
160.003,16,13,-2,0
160.004,12,9,-3,-2
160.004,9,9,0,0
160.005,10,12,9,8
160.005,11,18,25,19
160.006,5,9,24,16
160.006,-7,-7,12,9
160.007,-13,-15,0,-1
160.008,-14,-16,-7,-6
160.008,-12,-11,-4,-3
160.009,-7,-7,-3,-1
160.009,-4,-1,8,9
160.01,3,10,29,27
160.01,8,10,27,23
160.011,0,0,16,10
160.012,-12,-17,-5,-5
160.012,-16,-20,-16,-12
160.013,-10,-10,-10,-5
160.013,0,0,-1,1
160.014,6,5,0,3
160.015,10,8,1,5
160.015,16,15,5,7
160.016,20,20,10,9
160.016,16,17,9,4
160.017,8,7,-3,-5
160.017,2,4,-7,-8
160.018,4,11,3,0
160.019,9,12,0,-3
160.019,6,5,-8,-9
160.02,3,2,-12,-10
160.02,4,4,-11,-9
160.021,10,7,-16,-11
160.021,16,14,-11,-4
160.022,24,21,-2,6
160.023,28,23,7,16
160.023,30,21,15,24
160.024,23,9,11,18
160.024,3,-11,-5,0
160.025,-10,-20,-15,-9
160.025,-13,-15,-14,-14
160.026,-13,-3,3,-4
160.027,-10,5,22,8
160.027,-7,11,34,16
160.028,-10,0,17,0
160.028,-22,-12,3,-8
160.029,-22,-14,-4,-9
160.029,-15,-12,-12,-12
160.03,-7,-3,-3,2
160.031,9,9,9,18
160.031,23,18,17,27
160.032,26,14,13,20
160.032,14,1,-3,2
160.033,3,-9,-20,-9
160.034,1,-7,-19,-6
160.034,11,2,-12,0
160.035,21,17,0,6
160.035,23,24,18,19
160.036,22,21,17,16
160.036,17,14,10,9
160.037,9,10,10,4
160.037,-2,0,4,-4
160.038,-15,-9,-1,-10
160.039,-21,-11,3,-7
160.039,-22,-7,15,3
160.04,-17,-9,10,3
160.04,-12,-11,-3,-6
160.041,-13,-9,-5,-7
160.042,-8,-2,3,1
160.042,1,6,11,10
160.043,9,11,11,10
160.043,13,14,11,11
160.044,13,7,-2,0
160.044,6,1,-6,-1
160.045,9,7,0,6
160.046,17,14,8,10
160.046,16,15,8,8
160.047,13,18,19,16
160.047,7,3,1,-1
160.048,-6,-11,-15,-15
160.048,-11,-7,-7,-7
160.049,-2,-2,-2,0
160.05,3,2,-3,-3
160.05,2,4,-5,-8
160.051,2,2,-14,-14
160.051,2,2,-8,-3
160.052,10,10,8,13
160.052,15,11,13,17
160.053,12,4,3,7
160.054,6,-1,-9,-6
160.054,0,-5,-19,-18
160.055,-4,-3,-12,-12
160.055,2,13,17,17
160.056,17,24,40,40
160.056,24,19,38,39
160.057,16,10,25,22
160.058,-4,-10,5,0
160.058,-22,-26,-11,-11
160.059,-24,-23,-12,-9
160.059,-14,-14,-13,-9
160.06,-3,-3,-12,-14
160.06,-1,7,1,-7
160.061,2,16,17,9
160.062,9,15,14,11
160.062,15,14,7,9
160.063,19,13,0,2
160.063,15,7,-12,-9
160.064,7,7,-6,-7
160.064,7,8,-2,-3
160.065,5,7,3,3
160.066,4,-1,-3,2
160.066,4,-6,-11,-1
160.067,5,-1,-9,-4
160.067,6,7,4,8
160.068,14,17,21,20
160.068,14,17,22,13
160.069,3,4,4,-5
160.07,-9,-5,-8,-16
160.07,-14,-4,-2,-10
160.071,-14,-4,4,0
160.071,-9,-3,12,11
160.072,-2,-4,8,11
160.073,-1,-10,-5,4
160.073,-1,-12,-10,4
160.074,8,-5,-8,9
160.074,18,3,-6,10
160.075,26,16,1,13
160.075,32,24,5,13
160.076,28,16,-6,-1
160.077,15,5,-15,-10
160.077,9,10,-5,-7
160.078,7,10,-2,-6
160.078,1,6,2,-2
160.079,-1,4,10,5
160.079,-4,7,31,25
160.08,0,9,45,37
160.081,-2,-4,25,18
160.081,-15,-18,0,-6
160.082,-26,-23,-11,-17
160.082,-26,-17,-6,-14
160.083,-19,-13,-7,-8
160.083,-9,-6,-6,-5
160.084,1,4,0,0
160.085,6,10,6,4
160.085,9,12,8,5
160.086,11,15,13,10
160.086,14,17,15,11
160.087,14,17,12,7
160.087,8,11,7,1
160.088,3,0,-9,-10
160.089,0,-6,-26,-20
160.089,6,5,-19,-13
160.09,15,15,-6,-4
160.09,16,13,-1,2
160.091,15,14,3,5
160.091,12,8,3,6
160.092,11,9,10,17
160.093,15,9,14,20
160.093,12,8,23,29
160.094,7,-4,13,18
160.094,-7,-21,-5,-2
160.095,-21,-31,-21,-14
160.095,-19,-21,-17,-12
160.096,-8,-3,2,4
160.097,3,4,9,11
160.097,6,1,-1,0
160.098,3,6,5,6
160.098,11,17,15,9
160.099,9,14,11,0
160.1,-2,5,2,-9
160.1,-8,5,8,0
160.101,0,9,13,9
160.101,5,5,6,4
160.102,0,-3,-1,-1
160.102,-4,-8,-6,-1
160.103,0,-5,-3,5
160.104,9,3,3,11
160.104,16,9,5,10
160.105,17,14,6,5
160.105,10,7,0,0
160.106,4,4,-1,0
160.106,5,5,1,1
160.107,4,6,2,0
160.108,2,4,0,-1
160.108,0,0,-5,-3
160.109,2,0,-6,-1
160.109,6,3,-4,-1
160.11,7,4,-5,-2
160.11,5,1,-7,-4
160.111,3,0,-3,0
160.112,6,1,-2,2
160.112,8,4,0,4
160.113,11,9,8,9
160.113,7,6,9,11
160.114,4,0,6,11
160.114,4,0,7,12
160.115,2,-3,4,7
160.116,0,-1,4,2
160.116,-2,0,5,1
160.117,-3,0,2,-2
160.117,-3,0,0,-1
160.118,0,4,3,-2
160.118,0,7,6,-2
160.119,0,8,7,1
160.12,3,7,3,3
160.12,8,7,2,6
160.121,13,11,6,8
160.121,11,6,0,2
160.122,7,2,-3,0
160.122,5,1,0,6
160.123,8,2,1,7
160.124,6,-1,-5,-1
160.124,-3,-7,-4,-1
160.125,-3,-2,2,4
160.125,4,8,11,8
160.126,7,9,8,2
160.127,1,2,0,-5
160.127,-4,0,-1,-6
160.128,-3,2,0,-4
160.128,0,5,5,0
160.129,-1,4,5,0
160.129,-2,1,3,0
160.13,-1,0,3,1
160.131,0,1,3,3
160.131,3,3,3,7
160.132,6,5,5,8
160.132,9,5,5,9
160.133,7,3,3,7
160.133,7,0,0,3
160.134,3,0,0,4
160.135,4,0,1,6
160.135,6,1,0,4
160.136,6,4,4,4
160.136,4,4,5,5
160.137,6,5,4,5
160.137,7,7,4,2
160.138,2,2,0,-1
160.139,-1,-2,-2,-3
160.139,-3,-2,-1,0
160.14,0,1,4,6
160.14,4,5,5,6
160.141,4,3,2,2
160.141,4,2,-2,-1
160.142,4,2,-6,-6
160.143,3,4,-2,-3
160.143,4,5,0,0
160.144,4,1,0,3
160.144,6,5,3,7
160.145,12,13,11,9
160.145,12,14,11,4
160.146,5,9,6,0
160.147,0,3,0,-3
160.147,0,4,1,-3
160.148,0,4,1,-3
160.148,-2,1,0,-3
160.149,-2,0,0,-2
160.15,-2,0,0,0
160.15,0,0,0,0
160.151,1,0,-1,2
160.151,2,-1,0,4
160.152,3,-2,-1,4
160.152,3,-2,-1,3
160.153,2,-1,0,6
160.154,6,3,5,9
160.154,9,6,6,10
160.155,8,6,7,10
160.155,9,6,8,11
160.156,10,9,8,7
160.156,7,8,5,1
160.157,3,4,1,-3
160.158,0,3,0,-3
160.158,0,4,2,0
160.159,0,5,7,3
160.159,1,3,6,3
160.16,0,0,3,1
160.16,0,0,0,0
160.161,-1,-1,-2,-1
160.162,0,-3,-4,-2
160.162,1,0,-4,-2
160.163,2,0,-2,1
160.163,2,0,0,4
160.164,5,3,2,5
160.164,7,8,7,6
160.165,7,12,13,8
160.166,4,9,11,5
160.166,0,3,7,3
160.167,0,3,5,2
160.167,3,5,4,0
160.168,1,4,2,-1
160.168,0,5,3,0
160.169,1,6,4,0
160.17,1,4,1,-1
160.17,-1,0,-2,-2
160.171,-3,-5,-5,-1
160.171,0,-5,-5,0
160.172,3,-3,-5,1
160.172,6,1,-2,4
160.173,7,5,3,7
160.174,6,1,4,11
160.174,7,0,3,10
160.175,6,-3,0,7
160.175,4,-1,3,8
160.176,2,0,6,11
160.176,6,3,8,13
160.177,14,13,10,9
160.178,15,17,9,3
160.178,6,10,5,-2
160.179,-2,3,0,-5
160.179,-4,-1,-2,-7
160.18,-9,-7,-5,-6
160.18,-7,-6,-2,1
160.181,2,1,1,10
160.182,19,14,6,15
160.182,25,14,-1,6
160.183,23,12,-11,-7
160.183,10,7,-9,-10
160.184,-1,0,-6,-9
160.185,-9,-6,-3,-7
160.185,-12,-5,2,-2
160.186,-10,-2,8,3
160.186,-3,4,14,9
160.187,1,8,16,9
160.187,-1,4,13,7
160.188,-3,0,9,11
160.189,12,11,8,17
160.189,33,25,2,4
160.19,22,18,-4,-13
160.19,-9,-6,-11,-18
160.191,-25,-21,-11,-11
160.191,-18,-17,-7,-6
160.192,-14,-14,-2,1
160.193,-7,-6,8,12
160.193,0,0,15,23
160.194,12,6,17,29
160.194,29,18,12,24
160.195,37,26,5,10
160.195,28,25,6,0
160.196,7,8,1,-1
160.197,-2,-4,-5,-5
160.197,-6,-9,-9,-10
160.198,-11,-10,-8,-8
160.198,-8,-6,-1,0
160.199,-1,0,3,2
160.199,0,0,3,3
160.2,3,0,0,3
160.201,15,13,0,4
160.201,23,23,4,6
160.202,25,21,1,4
160.202,22,14,-8,-5
160.203,14,5,-18,-19
160.204,-6,-9,-21,-19
160.204,-10,-7,-5,-3
160.205,0,6,11,7
160.205,3,13,20,4
160.206,-9,1,15,-1
160.206,-23,-10,13,2
160.207,-21,-8,17,9
160.208,-15,-8,15,12
160.208,-6,-6,9,14
160.209,9,1,3,22
160.209,42,31,9,22
160.21,53,42,8,5
160.21,24,21,-1,-12
160.211,-11,-9,-12,-15
160.212,-19,-20,-16,-14
160.212,-18,-20,-15,-12
160.213,-18,-20,-11,1
160.213,4,-2,0,10
160.214,17,9,4,13
160.214,17,6,-1,6
160.215,8,-1,-5,5
160.216,12,4,2,10
160.216,17,15,11,16
160.217,25,25,16,11
160.217,14,15,7,-4
160.218,-6,0,-1,-12
160.218,-18,-8,0,-7
160.219,-15,-6,3,0
160.22,-8,-3,6,8
160.22,6,5,7,15
160.221,21,14,3,6
160.221,16,10,-3,-7
160.222,-6,-8,-7,-10
160.222,-16,-14,-3,-4
160.223,-16,-11,5,11
160.224,7,7,11,16
160.224,20,17,9,2
160.225,0,3,7,1
160.225,-2,2,8,9
160.226,10,11,9,4
160.226,2,4,1,-4
160.227,-5,-1,3,0
160.228,-1,5,9,4
160.228,3,9,9,2
160.229,1,7,7,3
160.229,5,8,2,-1
160.23,3,6,0,-4
160.23,-3,0,-2,0
160.231,2,-3,-5,1
160.232,4,-4,-9,-1
160.232,1,-5,-7,1
160.233,4,-3,-4,5
160.233,6,-2,-1,8
160.234,9,0,2,11
160.234,11,5,5,11
160.235,12,7,6,10
160.236,13,10,6,8
160.236,10,6,3,2
160.237,0,-3,-2,1
160.237,1,-1,0,2
160.238,4,2,-1,-1
160.238,-1,-2,-3,-2
160.239,0,1,0,0
160.24,-1,3,6,4
160.24,2,5,8,5
160.241,3,6,8,-1
160.241,-13,-7,6,2
160.242,-12,-7,11,15
160.243,6,7,14,15
160.243,11,9,10,11
160.244,13,11,5,1
160.244,2,4,3,-1
160.245,-6,0,6,8
160.245,12,13,7,12
160.246,29,25,0,-2
160.247,17,16,-7,-16
160.247,-1,3,-11,-20
160.248,-18,-15,-17,-19
160.248,-22,-20,-15,-10
160.249,-9,-9,-8,-2
160.249,6,7,3,5
160.25,12,14,11,10
160.251,10,9,10,10
160.251,6,0,1,4
160.252,3,-2,-2,3
160.252,7,5,3,7
160.253,13,14,10,11
160.253,14,13,9,9
160.254,8,5,0,0
160.255,-1,-3,-5,-4
160.255,-6,-7,-2,0
160.256,-1,2,10,9
160.256,4,8,12,9
160.257,4,6,8,4
160.257,2,3,2,3
160.258,10,10,2,2
160.259,13,14,3,-1
160.259,3,5,0,-3
160.26,0,2,-3,-6
160.26,0,2,-3,-7
160.261,-3,-1,-4,-4
160.262,2,2,0,0
160.262,4,4,1,0
160.263,-1,-5,-3,-3
160.263,-12,-15,-5,2
160.264,-1,-3,4,14
160.264,19,18,17,19
160.265,26,26,18,10
160.266,10,12,8,0
160.266,-4,-1,0,-3
160.267,-5,-3,0,0
160.267,1,3,2,-1
160.268,2,8,6,-1
160.268,0,7,6,-1
160.269,-4,2,3,-2
160.27,-6,-2,0,-3
160.27,-6,-3,-1,-1
160.271,-7,-9,-3,1
160.271,-2,-10,-5,10
160.272,12,-5,-7,12
160.272,21,5,-4,11
160.273,24,12,0,7
160.274,16,9,2,7
160.274,13,9,4,7
160.275,9,4,2,4
160.275,6,6,4,-1
160.276,-5,-1,2,-4
160.276,-8,-3,3,0
160.277,-1,4,9,6
160.278,5,9,10,6
160.278,2,5,5,0
160.279,-2,-2,0,0
160.279,0,0,3,5
160.28,7,7,6,5
160.281,3,3,4,2
160.281,-6,-6,0,-1
160.282,-11,-10,-1,-2
160.282,-11,-8,2,5
160.283,0,2,10,16
160.283,18,16,12,12
160.284,14,11,6,10
160.285,20,17,3,3
160.285,17,16,0,-6
160.286,3,5,-4,-9
160.286,-1,1,-4,-5
160.287,0,1,-5,-9
160.287,-8,-7,-9,-10
160.288,-9,-5,-4,-6
160.288,-6,-2,2,2
160.289,1,5,8,7
160.29,7,7,7,7
160.29,7,7,6,7
160.291,8,5,1,2
160.291,7,7,3,3
160.292,6,6,4,4
160.292,7,4,2,4
160.293,2,-2,-2,1
160.294,0,-6,-4,3
160.294,3,-2,-1,7
160.295,7,2,2,9
160.295,12,10,8,8
160.296,7,8,7,4
160.296,1,3,4,1
160.297,0,2,3,0
160.298,-2,1,3,0
160.298,-4,0,5,1
160.299,-4,0,6,2
160.299,-3,-2,4,5
160.3,0,0,6,6
160.301,1,2,7,8
160.301,8,8,7,11
160.302,17,14,5,6
160.302,16,14,1,1
160.303,13,8,-6,-8
160.303,-3,-6,-12,-11
160.304,-11,-12,-11,-3
160.305,3,1,-1,2
160.305,9,8,3,0
160.306,3,7,5,4
160.306,7,11,8,6
160.307,9,12,7,5
160.307,12,13,3,-1
160.308,4,7,0,-4
160.309,1,4,-3,-10
160.309,-12,-9,-5,-11
160.31,-19,-15,-2,-4
160.31,-15,-11,2,5
160.311,-2,-2,8,12
160.312,7,6,12,16
160.312,12,8,11,15
160.313,13,8,8,12
160.313,10,2,1,7
160.314,7,1,0,9
160.314,13,5,-2,11
160.315,25,12,-3,1
160.316,11,6,-3,-2
160.316,2,3,-2,-3
160.317,0,3,2,-1
160.317,0,3,2,2
160.318,6,7,2,0
160.318,2,4,1,-4
160.319,-6,-3,0,-3
160.319,-9,-7,0,-2
160.32,-9,-7,1,4
160.321,0,0,4,10
160.321,9,2,2,9
160.322,10,2,0,7
160.322,12,7,2,5
160.323,12,11,4,6
160.324,17,16,3,1
160.324,10,11,1,-5
160.325,-2,2,1,-3
160.325,-6,0,3,-1
160.326,-5,-1,3,1
160.326,0,3,3,2
160.327,5,9,6,3
160.328,6,8,3,0
160.328,-1,1,0,-4
160.329,-7,-5,-4,-6
160.329,-6,-3,-2,-3
160.33,-6,0,6,5
160.33,1,3,10,7
160.331,-2,-1,8,9
160.332,-3,-5,6,12
160.332,6,-1,2,19
160.333,27,13,1,14
160.333,25,14,-1,1
160.334,5,1,-2,0
160.334,1,-1,-1,0
160.335,0,-2,-1,-1
160.336,0,1,2,2
160.336,2,5,6,6
160.337,5,7,8,4
160.337,1,3,4,0
160.338,-4,-2,0,0
160.339,-4,-1,0,3
160.339,5,7,5,6
160.34,11,11,5,4
160.34,6,6,1,0
160.341,0,0,-3,-3
160.341,-1,-2,-4,0
160.342,1,2,0,3
160.342,6,5,3,5
160.343,7,5,2,2
160.344,3,1,0,0
160.344,2,1,0,0
160.345,5,9,7,5
160.345,8,12,10,6
160.346,7,9,5,0
160.347,2,4,0,-2
160.347,-1,1,0,-3
160.348,-1,1,2,0
160.348,1,3,2,1
160.349,1,0,0,0
160.349,0,-1,-1,-1
160.35,-1,-2,-1,0
160.351,0,-1,0,3
160.351,4,1,1,5
160.352,7,2,2,7
160.352,8,2,1,5
160.353,6,0,0,4
160.353,6,0,0,6
160.354,8,4,3,8
160.355,9,6,6,8
160.355,10,7,5,6
160.356,7,6,4,2
160.356,3,3,3,0
160.357,1,4,4,1
160.357,1,4,3,2
160.358,1,2,2,1
160.359,0,0,0,0
160.359,0,-1,-1,0
160.36,1,2,1,1
160.36,1,3,3,2
160.361,2,1,3,3
160.361,1,0,1,1
160.362,0,-1,1,1
160.363,0,-2,1,4
160.363,2,1,4,6
160.364,5,5,8,10
160.364,11,9,7,9
160.365,16,18,9,3
160.365,5,9,4,-2
160.366,0,2,0,1
160.367,7,9,1,-5
160.367,-2,0,-2,-9
160.368,-14,-8,-4,-2
160.368,-1,1,0,8
160.369,22,18,2,3
160.369,19,14,-3,-7
160.37,0,0,-6,-8
160.371,-10,-10,-5,-3
160.371,-6,-7,-2,2
160.372,2,0,0,4
160.372,5,1,2,6
160.373,5,3,7,10
160.373,7,2,5,9
160.374,5,0,3,8
160.375,7,2,3,7
160.375,8,7,7,8
160.376,9,10,10,9
160.376,9,10,8,5
160.377,3,4,3,-2
160.377,-5,-3,0,-3
160.378,-5,-1,2,1
160.379,0,3,5,5
160.379,5,6,4,2
160.38,3,2,-1,-2
160.38,-1,0,-2,-2
160.381,-1,0,1,4
160.382,5,5,6,9
160.382,12,10,4,4
160.383,5,3,0,-1
160.383,-1,-2,-2,0
160.384,0,-1,0,2
160.384,3,3,3,6
160.385,10,10,5,4
160.386,8,9,3,0
160.386,3,6,3,0
160.387,2,6,3,-1
160.387,1,3,1,-2
160.388,-1,-1,-3,-4
160.388,-4,-5,-3,-3
160.389,-5,-5,0,2
160.39,0,0,5,7
160.39,4,3,7,7
160.391,2,0,4,8
160.391,7,3,2,10
160.392,15,10,3,9
160.392,20,15,2,1
160.393,10,8,-2,-3
160.394,0,-1,-5,-4
160.394,-3,-4,-5,-2
160.395,-1,-2,-1,1
160.395,2,3,3,5
160.396,7,7,6,7
160.396,8,7,5,6
160.397,6,6,5,5
160.398,4,3,2,2
160.398,1,1,1,0
160.399,-1,0,2,1
160.399,0,1,4,3
160.401,1,3,6,6
160.401,5,5,4,2
160.401,0,-1,0,0
160.402,-3,-3,0,0
160.402,-3,-2,4,5
160.403,1,1,6,13
160.403,16,10,3,7
160.404,14,9,0,-5
160.404,-2,1,0,-1
160.405,0,7,8,4
160.406,3,9,8,3
160.406,3,7,4,1
160.407,3,6,1,-2
160.407,0,1,-1,-3
160.408,-2,-1,-1,-2
160.408,0,-1,-2,1
160.409,8,5,-2,-2
160.41,5,5,-1,-3
160.41,0,1,1,1
160.411,1,2,3,1
160.411,0,0,2,2
160.412,-1,-3,0,5
160.413,5,2,2,9
160.413,8,0,0,8
160.414,8,1,2,9
160.414,6,-1,0,7
160.415,7,2,2,7
160.415,12,11,8,8
160.416,11,12,9,6
160.417,7,8,6,1
160.417,0,0,1,-1
160.418,-1,-1,-1,-3
160.418,-1,0,-1,-2
160.419,0,2,2,0
160.419,2,4,4,2
160.42,2,2,0,0
160.421,2,1,-1,-1
160.421,1,1,0,0
160.422,1,2,2,3
160.422,3,2,4,6
160.423,4,0,1,4
160.423,3,-1,-1,2
160.424,5,2,2,3
160.425,5,8,9,7
160.425,6,10,11,5
160.426,4,7,6,2
160.426,0,3,5,0
160.427,0,5,4,-1
160.428,-4,1,4,0
160.428,-5,-1,4,4
160.429,4,4,4,9
160.429,21,16,1,-2
160.43,4,3,-5,-9
160.43,-8,-7,-6,-3
160.431,-2,-5,-5,0
160.431,0,-5,-4,-1
160.432,-3,-6,-1,3
160.433,3,1,4,9
160.433,6,4,6,10
160.434,6,3,7,13
160.434,11,5,5,17
160.435,27,19,5,10
160.435,22,18,3,3
160.436,13,11,0,-1
160.437,5,6,-1,-7
160.437,-5,-2,-4,-8
160.438,-9,-5,-5,-7
160.438,-6,-2,0,-2
160.439,-1,2,3,1
160.44,1,3,4,2
160.44,0,2,2,3
160.441,2,2,2,3
160.441,3,2,2,4
160.442,4,3,3,5
160.442,5,3,3,4
160.443,4,2,2,4
160.444,3,1,2,4
160.444,4,3,4,5
160.445,6,8,7,6
160.445,7,8,7,3
160.446,3,6,4,1
160.446,1,4,2,0
160.447,0,3,0,-1
160.448,0,2,1,0
160.448,0,1,0,-1
160.449,0,1,0,-1
160.449,0,0,0,0
160.45,0,0,1,1
160.45,0,0,1,2
160.451,1,-1,0,3
160.452,2,0,0,5
160.452,4,0,1,7
160.453,7,1,3,7
160.453,5,0,2,7
160.454,5,1,4,8
160.454,6,4,7,9
160.455,8,8,11,9
160.456,7,8,10,6
160.456,2,2,5,4
160.457,6,5,2,6
160.457,17,15,0,0
160.458,9,7,-5,-9
160.459,-4,-3,-10,-10
160.459,-6,-6,-7,-7
160.46,-5,-5,-5,-3
160.46,-1,0,0,1
160.461,4,5,4,7
160.461,8,8,7,8
160.462,9,8,7,7
160.462,7,5,4,3
160.463,2,0,0,3
160.464,3,1,0,4
160.464,8,6,3,4
160.465,8,11,6,2
160.465,3,7,5,-1
160.466,0,3,4,-1
160.467,-1,3,4,1
160.467,0,5,6,2
160.468,0,3,3,0
160.468,-1,0,1,-2
160.469,-4,-1,0,0
160.469,-3,-1,1,1
160.47,0,1,2,3
160.471,1,0,0,1
160.471,0,-2,0,3
160.472,3,-1,0,5
160.472,6,2,1,8
160.473,9,3,2,8
160.473,11,4,0,5
160.474,11,6,0,4
160.475,9,6,2,5
160.475,8,8,5,6
160.476,8,7,5,4
160.476,5,6,3,1
160.477,3,4,2,0
160.477,0,1,0,-2
160.478,-1,0,-1,-2
160.479,0,2,0,-1
160.479,1,3,1,0
160.48,2,4,3,1
160.48,1,2,3,3
160.481,1,2,4,4
160.481,2,1,2,3
160.482,2,1,1,4
160.483,5,3,1,3
160.483,6,4,1,3
160.484,5,4,2,3
160.484,5,5,3,2
160.485,5,8,6,1
160.485,4,8,7,1
160.486,2,6,5,0
160.487,0,4,3,-1
160.487,-2,0,1,-2
160.488,-4,-1,0,-1
160.488,-1,0,0,1
160.489,3,1,0,1
160.49,4,1,0,1
160.49,1,-2,-2,0
160.491,0,-4,-3,2
160.491,2,-1,0,6
160.492,4,0,3,8
160.492,6,2,5,9
160.493,6,2,6,11
160.493,11,6,7,12
160.494,14,9,6,10
160.495,13,7,3,4
160.495,7,5,2,1
160.496,2,3,2,0
160.496,0,1,1,0
160.497,0,1,0,-1
160.498,0,2,0,0
160.498,3,4,0,0
160.499,2,2,-1,-1
160.499,1,1,0,0
160.5,4,4,0,1
160.5,4,4,1,2
160.501,4,4,1,0
160.502,1,1,1,0
160.502,0,0,1,1
160.503,-1,-1,1,3
160.503,2,0,2,4
160.504,4,2,3,5
160.504,6,7,7,7
160.505,7,9,9,5
160.506,3,8,8,3
160.506,2,6,7,4
160.507,5,9,6,3
160.507,8,10,2,0
160.508,6,7,-1,-5
160.508,0,0,-5,-9
160.509,-5,-4,-6,-6
160.51,-5,-5,-4,0
160.51,2,0,-1,0
160.511,1,0,-1,0
160.511,-2,-3,0,3
160.512,0,-2,3,8
160.512,4,1,5,10
160.513,8,2,4,12
160.514,14,8,5,13
160.514,18,10,3,6
160.515,9,5,2,5
160.515,5,6,5,4
160.516,2,4,3,0
160.517,0,2,3,2
160.517,3,6,4,2
160.518,4,7,4,0
160.518,0,2,0,-3
160.519,-2,0,0,-2
160.519,-1,-1,-1,0
160.52,1,0,-2,2
160.521,5,1,0,1
160.521,4,1,0,1
160.522,3,2,1,3
160.522,5,5,3,4
160.523,6,5,4,5
160.524,5,5,3,3
160.524,3,3,2,3
160.525,5,5,5,2
160.525,4,7,6,2
160.526,2,7,6,2
160.526,1,4,5,0
160.527,-2,0,2,0
160.527,-2,-1,0,-2
160.528,-3,0,1,0
160.529,-1,0,3,3
160.529,2,2,3,4
160.53,3,1,2,3
160.53,4,2,1,3
160.531,5,1,0,3
160.531,5,2,0,4
160.532,6,1,0,4
160.533,6,0,-1,3
160.533,4,0,-1,3
160.534,5,2,0,4
160.534,6,4,3,5
160.535,7,5,5,5
160.535,6,6,6,4
160.536,4,5,5,3
160.537,2,5,5,1
160.537,0,1,2,1
160.538,0,1,3,2
160.538,3,3,2,1
160.539,3,3,1,1
160.54,3,2,0,0
160.54,3,2,0,2
160.541,4,4,0,1
160.541,5,4,1,0
160.542,2,2,0,0
160.542,1,2,0,0
160.543,0,1,0,0
160.544,0,0,2,2
160.544,1,0,3,3
160.545,2,4,6,6
160.545,4,7,9,5
160.546,4,6,8,3
160.546,0,3,7,2
160.547,0,2,6,3
160.548,1,2,2,1
160.548,2,2,0,0
160.549,1,2,0,0
160.549,1,1,1,2
160.55,4,3,1,3
160.55,7,5,0,1
160.551,8,4,-2,0
160.552,5,1,-3,0
160.552,1,-2,-4,0
160.553,0,-2,-2,2
160.553,1,-3,-1,4
160.554,4,1,3,7
160.554,8,6,6,8
160.555,10,9,8,10
160.556,14,12,6,6
160.556,12,10,1,0
160.557,4,4,-1,-2
160.557,0,0,-1,-3
160.558,-1,-1,0,-1
160.558,-1,-1,-1,0
160.559,0,0,1,2
160.56,0,1,3,3
160.56,1,3,6,5
160.561,3,5,7,7
160.561,8,7,5,7
160.562,12,10,1,0
160.562,6,5,0,-2
160.563,0,0,-2,-2
160.564,0,-1,-2,0
160.564,0,0,0,0
160.565,3,5,5,2
160.565,3,7,6,4
160.566,4,7,7,4
160.566,5,7,6,2
160.567,2,3,1,-1
160.568,0,0,0,0
160.568,-1,1,2,0
160.569,0,1,2,2
160.569,1,2,2,1
160.57,1,1,1,1
160.57,0,-1,0,1
160.571,1,0,0,4
160.572,4,1,1,5
160.572,5,0,0,4
160.573,4,0,-1,5
160.573,6,1,1,8
160.574,10,4,3,8
160.574,10,5,4,7
160.575,8,5,4,5
160.576,5,4,3,4
160.576,4,4,4,3
160.577,3,4,4,3
160.577,4,5,3,1
160.578,2,2,1,0
160.578,1,1,0,0
160.579,1,1,0,-1
160.58,2,2,0,0
160.58,1,3,2,0
160.581,1,2,1,2
160.581,4,3,0,1
160.582,4,4,1,1
160.583,4,4,3,3
160.583,3,0,0,2
160.584,1,0,-1,1
160.584,3,3,3,3
160.585,4,7,8,5
160.585,2,6,9,4
160.586,0,4,7,2
160.587,0,4,7,2
160.587,-1,0,3,0
160.588,0,0,1,1
160.588,1,1,0,1
160.589,3,0,0,1
160.59,3,1,-1,0
160.59,1,0,0,2
160.591,2,-1,0,4
160.591,7,2,0,5
160.592,7,2,0,3
160.592,5,0,0,4
160.593,5,1,0,5
160.593,8,4,3,6
160.594,10,6,3,4
160.595,7,5,3,4
160.595,7,7,5,4
160.596,5,6,4,3
160.596,4,4,2,0
160.597,1,3,0,0
160.598,0,2,1,0
160.598,1,3,2,0
160.599,0,1,1,1
160.599,0,1,0,1
160.6,1,1,2,2
160.6,2,2,2,3
160.601,3,3,3,4
160.601,3,3,2,2
160.602,2,1,1,1
160.603,1,1,0,1
160.603,2,2,2,4
160.604,6,5,2,3
160.604,5,6,5,3
160.605,5,7,6,3
160.605,1,5,5,0
160.606,-3,1,4,0
160.607,-1,2,5,3
160.607,1,4,5,1
160.608,3,6,4,0
160.608,0,3,2,2
160.609,4,4,2,3
160.609,6,3,-2,0
160.61,6,2,-4,1
160.611,11,6,-4,-3
160.611,2,-1,-8,-6
160.612,-5,-8,-7,-2
160.612,-1,-4,-2,5
160.613,6,0,0,6
160.613,7,4,3,7
160.614,7,4,7,9
160.615,6,4,7,11
160.615,10,8,9,13
160.616,15,12,5,5
160.616,11,10,3,0
160.617,2,5,2,-1
160.618,0,2,0,-1
160.618,-1,0,0,-1
160.619,-2,0,0,-1
160.619,-2,0,1,1
160.62,0,2,4,3
160.62,1,1,3,2
160.621,0,-2,0,1
160.622,-1,-5,-2,2
160.622,2,0,2,6
160.623,6,5,7,9
160.623,9,7,8,10
160.624,12,9,5,7
160.624,13,13,5,1
160.625,8,11,3,-1
160.626,2,8,2,-2
160.626,0,4,1,-5
160.627,-3,1,-1,-7
160.627,-5,-1,-3,-6
160.628,-5,0,0,-2
160.628,-1,0,2,1
160.629,0,0,2,3
160.63,2,0,0,4
160.63,3,0,0,4
160.631,2,-2,-1,5
160.631,6,0,1,8
160.632,9,3,3,10
160.632,13,7,4,7
160.633,8,4,2,5
160.634,6,3,3,5
160.634,6,4,3,3
160.635,3,2,3,4
160.635,2,3,3,3
160.636,2,3,4,3
160.637,3,5,6,4
160.637,6,7,5,1
160.638,1,3,3,0
160.638,0,4,2,-1
160.639,0,2,1,0
160.639,0,0,0,-1
160.64,0,-3,-5,0
160.641,1,0,-1,1
160.641,3,1,0,2
160.642,2,2,3,4
160.642,4,4,6,7
160.643,7,6,6,7
160.643,7,6,4,3
160.644,6,5,2,2
160.645,6,8,5,2
160.645,2,6,5,1
160.646,2,5,4,1
160.646,2,4,3,-1
160.647,-1,1,0,-3
160.647,-3,0,0,0
160.648,-1,0,0,0
160.649,0,1,0,2
160.649,4,4,0,4
160.65,9,7,1,1
160.65,7,4,-1,-1
160.651,1,0,-4,-1
160.651,0,-3,-4,0
160.652,2,-1,-2,2
160.653,2,-1,0,5
160.653,5,1,3,9
160.654,8,3,3,9
160.654,9,5,6,10
160.655,9,8,9,9
160.655,7,7,8,7
160.656,5,5,5,3
160.657,2,4,4,2
160.657,2,3,1,0
160.658,2,2,0,-1
160.658,0,0,-1,-1
160.659,-1,1,0,0
160.659,1,1,1,1
160.66,3,3,3,3
160.661,4,3,2,2
160.661,4,4,2,2
160.662,3,2,1,2
160.662,4,3,1,2
160.663,4,3,0,1
160.663,3,2,0,1
160.664,4,4,1,2
160.665,5,8,6,3
160.665,4,8,6,1
160.666,1,4,3,0
160.666,0,3,3,0
160.667,0,1,2,0
160.668,0,1,2,0
160.668,1,2,2,1
160.669,2,1,0,0
160.669,0,0,0,0
160.67,1,1,0,2
160.67,1,0,0,3
160.671,2,0,0,3
160.672,1,-1,0,3
160.672,0,-4,-1,4
160.673,2,-1,3,8
160.673,7,3,6,10
160.674,9,4,7,10
160.674,8,4,6,9
160.675,9,6,6,10
160.676,15,12,7,8
160.676,17,15,4,0
160.677,7,9,0,-5
160.677,-1,0,-3,-5
160.678,-3,-2,-4,-6
160.679,-4,-3,-4,-5
160.679,-3,-2,-1,-1
160.68,0,1,1,2
160.68,3,4,3,4
160.681,5,5,4,4
160.681,4,3,2,3
160.682,5,3,2,3
160.682,6,5,3,4
160.683,5,5,3,3
160.684,5,3,0,2
160.684,4,4,1,0
160.685,3,6,4,0
160.685,0,5,5,1
160.686,0,3,6,0
160.687,-1,3,7,1
160.687,-1,1,4,1
160.688,-2,1,2,0
160.688,0,2,3,2
160.689,2,4,3,3
160.689,4,4,2,1
160.69,2,1,0,0
160.691,1,-1,-2,1
160.691,3,0,-2,4
160.692,8,1,-2,3
160.692,7,0,-3,3
160.693,5,-1,-3,3
160.693,5,0,0,6
160.694,5,1,1,7
160.695,7,3,5,8
160.695,8,9,10,8
160.696,6,7,8,6
160.696,5,6,6,4
160.697,3,4,3,2
160.697,2,3,3,0
160.698,0,3,2,0
160.698,-1,1,2,0
160.699,0,2,2,0
160.7,0,0,0,0
160.7,1,3,2,2
160.701,4,4,2,2
160.701,3,4,1,2
160.702,2,1,0,3
160.703,7,3,-2,2
160.703,7,2,-4,-1
160.704,1,-1,-2,0
160.704,1,2,2,3
160.705,5,8,8,4
160.705,4,8,8,3
160.706,1,5,7,1
160.707,0,4,8,3
160.707,0,4,6,0
160.708,-2,-1,2,0
160.708,-3,-4,-1,1
160.709,0,-1,0,4
160.71,5,4,4,5
160.71,6,6,4,4
160.711,7,4,1,1
160.711,4,1,-1,1
160.712,5,1,-3,2
160.712,8,4,-2,1
160.713,6,0,-3,0
160.713,3,0,-3,1
160.714,3,0,0,4
160.715,6,3,2,5
160.715,9,8,6,7
160.717,10,10,6,5
160.717,7,8,5,3
160.717,5,6,2,0
160.718,2,4,2,0
160.718,0,1,0,-2
160.719,-2,-1,0,-1
160.719,-2,-1,0,0
160.72,0,0,1,2
160.72,0,1,3,2
160.721,0,1,4,3
160.722,1,1,5,5
160.722,3,2,4,6
160.723,5,4,4,4
160.723,4,3,3,6
160.724,11,9,3,6
160.724,16,16,5,1
160.725,8,10,2,-2
160.726,0,2,0,-3
160.726,-3,0,0,-3
160.727,-4,0,-1,-4
160.727,-4,-1,0,-2
160.728,-3,0,2,1
160.728,0,1,3,3
160.729,2,3,3,3
160.73,4,4,3,3
160.73,3,3,2,3
160.731,2,1,2,4
160.731,4,2,2,5
160.732,4,0,0,4
160.732,3,-2,-2,3
160.733,3,-4,-3,5
160.734,7,1,1,8
160.734,10,6,6,10
160.735,10,8,6,7
160.735,8,8,6,5
160.736,6,6,5,3
160.736,4,5,3,1
160.737,1,2,1,0
160.738,0,1,1,0
160.738,0,1,0,-1
160.739,0,2,1,0
160.739,0,3,3,1
160.74,0,3,4,2
160.741,0,0,1,2
160.741,2,1,1,2
160.742,4,3,1,2
160.742,6,5,2,4
160.743,8,6,0,3
160.743,7,4,-1,0
160.744,2,0,-3,0
160.745,2,1,1,0
160.745,2,4,4,3
160.746,4,8,7,5
160.746,6,9,7,3
160.747,3,5,4,0
160.747,0,3,1,0
160.748,0,1,0,-1
160.748,-1,0,0,-1
160.749,-1,0,0,0
160.75,0,0,1,2
160.75,3,1,1,2
160.751,3,0,0,3
160.751,4,1,0,3
160.752,3,0,0,4
160.753,3,0,0,7
160.753,7,2,2,8
160.754,8,4,3,7
160.754,8,5,4,7
160.755,7,6,6,5
160.755,5,5,6,5
160.756,3,4,4,2
160.757,2,3,4,1
160.757,1,2,2,0
160.758,-1,1,1,0
160.758,0,1,3,2
160.759,1,1,2,1
160.759,1,2,3,2
160.76,1,1,2,0
160.761,0,0,2,2
160.761,0,0,2,3
160.762,3,3,3,5
160.762,7,6,3,4
160.763,9,8,1,0
160.763,6,6,1,1
160.764,5,6,1,1
160.765,6,7,2,0
160.765,4,7,0,-3
160.766,1,5,1,-3
160.766,-2,4,3,-2
160.767,-3,1,2,-2
160.767,-3,0,1,0
160.768,-2,0,0,2
160.769,6,5,1,1
160.769,6,4,1,0
160.77,1,-1,-2,1
160.77,0,-4,-4,2
160.771,4,-1,-1,5
160.771,8,2,0,7
160.772,10,4,3,8
160.773,9,5,4,8
160.773,8,3,3,6
160.774,5,0,1,4
160.774,3,0,1,4
160.775,5,5,6,7
160.776,7,7,6,7
160.776,6,4,2,3
160.777,1,0,0,0
160.777,-1,-1,0,0
160.778,0,2,4,3
160.778,3,5,6,3
160.779,3,3,3,3
160.779,4,4,2,3
160.78,9,7,1,-1
160.781,3,3,-1,-2
160.781,0,1,0,0
160.782,2,2,1,1
160.782,2,0,0,0
160.783,0,-1,-1,0
160.784,1,0,0,2
160.784,4,4,5,6
160.785,7,9,9,6
160.785,6,10,9,4
160.786,2,6,5,0
160.786,0,4,4,0
160.787,0,4,3,0
160.788,-1,1,0,-1
160.788,-2,0,0,-1
160.789,-1,0,0,0
160.789,0,1,1,1
160.79,4,3,2,4
160.79,5,3,0,3
160.791,6,1,-1,3
160.792,4,-1,-2,3
160.792,5,0,-1,4
160.793,6,1,0,5
160.793,8,4,2,6
160.794,9,7,5,7
160.794,7,5,5,4
160.795,6,6,5,3
160.796,4,5,5,2
160.796,0,3,4,0
160.797,-2,-1,2,2
160.797,0,1,2,3
160.798,2,3,3,2
160.798,3,2,2,1
160.799,2,3,2,1
160.801,3,4,2,1
160.801,2,2,2,1
160.801,1,0,0,0
160.801,0,0,0,2
160.802,2,1,3,5
160.803,4,2,3,6
160.803,5,2,2,4
160.804,4,3,3,3
160.804,4,4,5,6
160.805,8,7,4,4
160.805,9,10,3,2
160.806,7,9,4,0
160.806,4,8,3,-3
160.807,-1,3,0,-5
160.808,-3,0,-1,-3
160.808,0,0,-1,-1
160.809,4,5,0,-1
160.809,1,2,-1,-2
160.81,0,0,-1,-1
160.81,-3,-4,0,1
160.811,-2,-4,0,5
160.812,0,-2,2,8
160.812,4,0,5,11
160.813,9,4,6,12
160.813,11,6,6,11
160.814,14,9,5,9
160.814,13,9,4,5
160.815,10,8,3,2
160.816,3,3,0,-1
160.816,0,0,0,-1
160.817,-2,0,1,0
160.817,-1,1,2,0
160.818,0,1,2,1
160.819,2,4,4,3
160.819,4,5,3,2
160.82,5,6,2,1
160.82,3,4,1,0
160.821,0,1,0,-1
160.821,0,0,0,0
160.822,0,0,0,2
160.823,1,1,1,3
160.823,2,1,3,4
160.824,4,4,4,5
160.824,6,9,8,5
160.825,6,9,8,5
160.825,5,9,5,2
160.826,2,4,3,0
160.827,1,3,2,0
160.827,0,2,0,-2
160.828,-1,0,-2,-2
160.828,-1,-1,-2,-1
160.829,0,0,0,1
160.829,3,2,1,2
160.83,4,2,1,2
160.831,4,2,1,3
160.831,5,3,1,4
160.832,5,0,-1,2
160.832,5,1,0,4
160.833,6,1,0,3
160.833,5,2,0,5
160.834,6,3,3,5
160.835,6,4,4,5
160.835,6,5,6,6
160.836,4,5,5,4
160.836,4,5,4,4
160.837,2,3,3,2
160.837,1,1,2,1
160.838,1,2,2,0
160.839,1,2,1,1
160.839,2,2,1,1
160.84,3,4,2,2
160.84,3,2,1,1
160.841,2,2,0,0
160.842,1,0,0,1
160.842,2,1,1,2
160.843,1,0,1,3
160.843,1,0,2,3
160.844,2,2,4,5
160.844,3,6,8,5
160.845,4,7,9,4
160.846,3,6,7,4
160.846,4,7,6,7
160.847,13,12,2,2
160.847,11,9,-2,-6
160.848,0,0,-7,-8
160.848,-2,-1,-6,-6
160.849,-1,-1,-5,-5
160.85,-2,0,-2,-3
160.85,-2,-1,-1,0
160.851,0,-1,1,4
160.851,2,0,3,7
160.852,4,0,3,8
160.852,4,0,3,9
160.853,5,0,4,10
160.854,8,4,6,13
160.854,12,8,8,12
160.855,13,10,7,7
160.855,9,8,5,4
160.856,4,4,2,1
160.856,1,3,1,1
160.857,4,4,0,0
160.858,5,5,-2,-4
160.858,-1,0,-3,-4
160.859,-3,-1,-2,-2
160.859,-1,0,0,0
160.86,0,0,1,2
160.861,1,2,2,3
160.861,4,5,4,4
160.862,5,5,4,5
160.862,6,4,4,4
160.863,4,2,2,4
160.863,3,1,1,2
160.864,4,3,3,3
160.864,6,9,7,4
160.865,5,8,7,2
160.866,0,3,3,0
160.866,0,2,3,0
160.867,0,3,2,0
160.867,1,5,3,0
160.868,1,3,1,-1
160.869,0,1,0,-1
160.869,-1,0,-1,-2
160.87,-1,0,0,1
160.87,1,1,2,4
160.871,6,4,2,5
160.871,5,0,-1,3
160.872,1,-4,-4,3
160.873,2,-5,-4,5
160.873,3,-3,0,8
160.874,8,2,4,11
160.874,11,6,7,12
160.875,14,12,10,12
160.875,12,11,9,7
160.876,7,7,5,4
160.877,7,6,2,1
160.877,6,6,0,-3
160.878,2,4,-1,-5
160.878,-2,0,-2,-5
160.879,-4,-2,-3,-6
160.879,-5,-1,0,-1
160.88,-2,1,2,1
160.881,0,2,3,5
160.881,5,4,2,5
160.882,8,5,0,3
160.882,7,3,0,1
160.883,5,3,0,1
160.883,3,3,1,2
160.884,4,6,5,4
160.885,8,11,8,4
160.885,7,10,6,1
160.886,4,8,3,-1
160.886,1,5,1,-2
160.887,-1,0,-2,-3
160.888,-2,-2,-4,-3
160.888,-2,-1,-1,-1
160.889,0,0,1,1
160.889,0,2,4,4
160.89,0,2,5,5
160.89,0,-1,2,5
160.891,1,-1,1,5
160.892,3,-2,0,5
160.892,6,0,1,8
160.893,9,4,3,9
160.893,10,5,4,8
160.894,9,6,4,8
160.894,12,10,4,7
160.895,15,14,5,2
160.896,5,4,0,-2
160.896,-1,-2,-4,-3
160.897,-2,-3,-3,-3
160.897,-2,-1,0,0
160.898,-1,1,3,1
160.898,0,2,4,4
160.899,3,3,5,4
160.9,4,3,3,2
160.9,1,3,3,3
160.901,2,2,2,3
160.901,4,3,3,4
160.902,6,4,2,3
160.902,5,3,1,1
160.903,3,2,0,0
160.904,2,2,1,2
160.904,4,5,3,3
160.905,6,8,6,2
160.905,3,6,5,1
160.906,1,6,5,0
160.906,0,5,4,0
160.907,-1,1,1,-1
160.908,-2,2,3,0
160.908,-1,0,1,0
160.909,-1,0,0,2
160.909,2,0,0,2
160.91,4,2,1,3
160.91,3,0,0,2
160.911,2,0,0,3
160.912,3,0,0,4
160.912,5,1,0,6
160.913,6,1,1,6
160.913,7,3,2,7
160.914,9,4,3,7
160.914,9,5,3,6
160.915,8,7,4,5
160.916,7,6,3,3
160.916,5,5,2,2
160.917,3,4,1,0
160.917,1,3,1,0
160.918,0,1,0,-1
160.918,-1,0,0,0
160.919,-1,0,1,2
160.92,3,4,3,3
160.92,4,3,2,2
160.921,3,3,1,1
160.921,3,2,1,2
160.922,2,1,1,1
160.923,1,0,2,2
160.923,2,1,1,3
160.924,3,2,4,4
160.924,4,6,6,5
160.925,5,7,7,5
160.925,4,6,6,2
160.926,2,4,5,3
160.927,3,4,3,0
160.927,0,1,0,-2
160.928,-2,0,0,0
160.928,0,0,0,0
160.929,2,2,0,0
160.929,2,2,0,2
160.93,5,4,0,2
160.931,6,2,-1,0
160.931,3,-1,-2,1
160.932,2,-1,-2,3
160.932,4,0,0,4
160.933,6,1,0,6
160.933,8,4,3,7
160.934,9,6,5,7
160.935,8,6,4,5
160.935,6,6,4,4
160.936,2,3,3,2
160.936,3,4,4,2
160.937,3,4,4,2
160.937,4,5,2,1
160.938,2,2,1,0
160.939,1,1,0,-1
160.939,0,0,0,1
160.94,1,2,2,2
160.94,4,5,4,2
160.941,4,4,2,1
160.941,1,1,0,1
160.942,2,3,1,2
160.943,3,2,1,1
160.943,2,1,0,2
160.944,2,1,1,3
160.944,4,6,6,3
160.945,4,8,7,3
160.946,0,4,5,0
160.946,-3,0,4,1
160.947,-2,0,4,2
160.947,0,1,4,2
160.948,0,1,3,2
160.948,2,1,2,3
160.949,4,3,2,4
160.949,8,6,3,4
160.95,9,6,0,3
160.951,13,7,-3,0
160.951,8,2,-6,-4
160.952,0,-4,-9,-4
160.952,-1,-6,-5,-1
160.953,-1,-5,-2,3
160.954,3,0,3,7
160.954,6,4,9,12
160.955,11,11,12,12
160.955,12,12,11,8
160.956,9,10,7,5
160.956,6,5,1,1
160.957,6,5,-1,0
160.958,6,5,-1,-3
160.958,0,0,-4,-5
160.959,-3,-3,-4,-4
160.959,-3,-4,-3,-1
160.96,0,0,0,2
160.96,3,4,4,5
160.961,6,6,4,4
160.962,4,5,5,4
160.962,3,3,4,3
160.963,3,3,4,4
160.963,4,3,3,2
160.964,2,4,5,3
160.965,2,6,7,4
160.965,2,6,7,3
160.966,2,5,4,1
160.966,1,5,3,0
160.967,1,2,1,-2
160.967,-1,0,0,-1
160.968,0,0,0,0
160.968,0,1,0,0
160.969,1,2,1,0
160.97,2,2,2,2
160.97,3,2,1,1
160.971,1,0,0,2
160.971,1,0,0,4
160.972,4,1,1,5
160.972,5,1,1,7
160.973,6,0,1,7
160.974,7,1,1,7
160.974,7,1,2,7
160.975,7,4,4,7
160.975,6,3,4,6
160.976,5,5,5,5
160.977,5,5,5,4
160.977,3,4,4,3
160.978,5,5,3,4
160.978,9,8,1,0
160.979,3,3,-1,-3
160.979,-1,0,-2,-3
160.98,-1,0,-1,-3
160.98,-1,0,0,-1
160.981,0,0,0,1
160.982,2,1,1,2
160.982,4,3,2,4
160.983,7,4,2,4
160.983,6,3,0,2
160.984,4,4,2,3
160.985,8,11,8,4
160.985,7,10,9,3
160.986,2,5,4,0
160.986,0,3,2,-1
160.987,-2,0,0,-1
160.987,-2,2,2,0
160.988,0,1,1,0
160.989,0,2,2,1
160.989,1,1,1,2
160.99,3,2,0,2
160.99,3,0,0,2
160.991,2,-1,-2,2
160.991,3,-1,-2,3
160.992,4,0,0,6
160.993,7,0,0,7
160.993,7,3,3,8
160.994,8,5,6,8
160.994,8,6,6,7
160.995,7,7,6,4
160.995,5,7,5,2
160.996,1,4,4,2
160.997,2,3,4,2
160.997,2,3,1,1
160.998,4,5,1,0
160.998,2,3,-1,-2
160.999,-1,-1,-3,-1
160.999,0,-1,-2,0
161,2,1,0,0
161.001,3,4,2,1
161.001,2,3,3,3
161.002,3,3,3,4
161.002,5,4,3,4
161.003,4,2,0,1
161.003,3,1,0,1
161.004,3,5,6,4
161.005,7,11,9,6
161.005,9,12,8,4
161.006,7,9,3,-1
161.006,0,2,0,-3
161.007,-3,0,-1,-3
161.007,-2,0,0,0
161.008,-1,0,0,0
161.009,-2,-2,0,0
161.009,0,0,1,1
161.01,2,3,2,3
161.01,3,2,2,4
161.011,4,2,2,4
161.011,4,2,0,4
161.012,6,2,1,5
161.013,6,2,0,4
161.013,5,0,-1,4
161.014,7,1,0,6
161.014,8,4,2,6
161.015,9,7,6,7
161.016,8,8,6,5
161.016,6,6,4,2
161.017,3,4,2,1
161.017,1,3,1,-1
161.018,-1,0,0,-1
161.018,-4,-4,0,0
161.019,-1,0,2,3
161.02,1,1,3,2
161.02,0,2,4,4
161.021,0,1,5,4
161.021,1,1,4,5
161.022,2,0,3,6
161.022,5,1,2,6
161.023,9,6,3,6
161.024,10,8,3,4
161.024,10,10,5,4
161.025,10,11,3,-1
161.025,4,5,0,-2
161.026,2,4,0,-2
161.026,3,6,0,-4
161.027,0,2,-2,-6
161.028,-3,0,-1,-5
161.028,-5,-3,-3,-5
161.029,-5,-3,0,0
161.029,-1,0,1,2
161.03,1,2,3,5
161.03,3,0,2,6
161.031,4,0,2,7
161.032,7,3,4,9
161.032,11,7,5,11
161.033,18,12,2,6
161.033,11,5,-1,0
161.034,2,0,-2,0
161.034,1,0,0,2
161.035,2,1,2,3
161.036,2,2,3,4
161.036,4,5,6,4
161.037,4,6,7,4
161.037,2,3,4,2
161.038,0,2,2,1
161.038,0,0,0,0
161.039,1,1,2,2
161.04,3,3,3,3
161.04,3,4,3,2
161.041,3,2,0,0
161.041,1,1,0,1
161.042,3,3,1,2
161.042,4,3,1,3
161.043,4,1,0,2
161.044,3,1,1,2
161.044,4,5,4,3
161.045,4,7,7,4
161.045,4,8,7,3
161.046,2,7,5,1
161.046,0,3,3,0
161.047,-1,0,0,-2
161.048,-2,0,0,-1
161.048,0,0,1,0
161.049,0,1,0,1
161.049,0,0,1,1
161.05,2,0,0,2
161.051,2,0,0,5
161.051,4,0,0,5
161.052,5,1,0,5
161.052,6,0,0,6
161.053,8,2,0,7
161.053,9,4,2,8
161.054,10,6,3,7
161.055,8,5,4,4
161.055,4,5,5,2
161.056,0,2,3,2
161.056,1,3,5,3
161.057,3,3,4,3
161.057,5,5,2,2
161.058,4,3,0,0
161.059,3,2,-1,0
161.059,5,4,-1,-1
161.06,2,1,-2,0
161.06,2,2,-1,1
161.061,5,3,0,1
161.061,4,3,0,0
161.062,2,1,0,0
161.063,0,1,2,2
161.063,3,4,4,4
161.064,5,5,5,4
161.064,4,8,8,3
161.065,3,7,6,3
161.066,1,6,5,1
161.066,1,5,5,1
161.067,0,4,4,0
161.067,-1,1,2,-1
161.068,-1,0,2,0
161.068,0,0,0,0
161.069,0,0,0,1
161.07,2,1,1,2
161.07,3,1,0,2
161.071,3,1,0,3
161.071,4,0,0,4
161.072,3,0,0,6
161.072,5,-1,0,6
161.073,5,0,1,7
161.074,8,3,4,8
161.074,7,2,3,7
161.075,7,5,5,7
161.075,8,8,7,6
161.076,6,7,5,3
161.076,4,4,3,2
161.077,2,3,1,0
161.078,1,2,0,-1
161.078,0,2,0,0
161.079,0,1,0,0
161.079,0,0,0,1
161.08,2,3,3,3
161.08,4,3,1,0
161.081,2,2,1,1
161.082,1,2,2,2
161.082,3,3,2,4
161.083,7,5,2,3
161.083,6,4,0,0
161.084,4,5,2,2
161.084,5,7,4,2
161.085,3,5,4,0
161.086,0,2,1,0
161.086,2,4,4,1
161.087,1,4,2,0
161.087,1,3,3,0
161.088,0,1,1,0
161.088,0,0,1,0
161.089,0,0,0,0
161.09,1,0,1,2
161.09,1,0,1,3
161.091,3,0,1,4
161.091,3,0,0,5
161.092,4,0,0,6
161.092,6,1,2,8
161.093,8,3,4,8
161.094,9,5,4,8
161.094,9,4,3,6
161.095,12,9,4,4
161.095,9,8,3,1
161.096,4,5,2,0
161.096,0,3,1,0
161.097,0,0,0,-2
161.098,-2,0,0,-2
161.098,-2,0,0,0
161.099,1,2,2,2
161.099,3,3,4,5
161.1,7,3,0,4
161.101,7,3,0,1
161.101,5,4,1,2
161.102,4,4,3,2
161.102,3,3,3,2
161.103,3,2,1,2
161.103,4,4,1,2
161.104,5,7,3,1
161.105,4,8,6,0
161.105,0,5,4,0
161.106,-1,2,3,0
161.106,-2,2,3,0
161.107,-3,0,2,1
161.107,0,1,2,4
161.108,8,7,3,5
161.109,11,10,2,0
161.109,3,4,0,0
161.11,1,2,0,-1
161.11,1,2,0,-1
161.111,0,0,-1,0
161.111,-2,-6,-5,0
161.112,0,-5,-3,5
161.113,5,-1,1,9
161.113,9,3,3,9
161.114,10,5,5,9
161.114,10,7,7,10
161.115,9,9,9,8
161.116,8,8,6,5
161.116,4,4,2,0
161.117,0,0,1,0
161.117,0,1,3,1
161.118,1,2,3,1
161.118,1,1,1,1
161.119,2,2,1,1
161.12,2,2,0,1
161.12,2,2,1,0
161.121,1,0,0,0
161.121,1,0,1,2
161.122,2,2,2,3
161.122,5,4,2,4
161.123,4,3,1,2
161.124,5,4,3,3
161.124,4,6,4,2
161.125,1,5,5,0
161.125,-1,3,5,2
161.126,1,5,7,3
161.126,2,5,5,2
161.127,1,3,3,0
161.127,0,1,1,0
161.128,0,1,0,1
161.129,5,5,1,4
161.129,11,7,0,0
161.13,9,5,-4,-3
161.13,1,0,-6,-4
161.131,0,-1,-5,-1
161.132,0,-2,-3,1
161.132,3,0,0,5
161.133,7,2,1,7
161.133,9,5,3,7
161.134,9,6,5,8
161.134,8,6,6,6
161.135,7,6,4,4
161.136,4,5,4,3
161.136,3,3,3,1
161.137,0,2,2,1
161.137,0,1,2,1
161.138,-1,0,1,1
161.138,0,0,1,3
161.139,2,1,2,3
161.14,3,4,4,4
161.14,2,3,3,3
161.141,4,3,3,2
161.141,2,3,3,3
161.142,2,2,2,2
161.142,3,2,1,1
161.143,1,1,1,1
161.144,1,2,2,3
161.144,6,9,7,4
161.145,6,9,6,3
161.145,5,9,5,2
161.146,5,8,2,-2
161.146,0,3,0,-3
161.147,-2,0,-1,-3
161.148,-1,1,-1,-3
161.148,0,1,0,-1
161.149,0,2,1,0
161.149,0,0,0,1
161.15,0,-1,0,3
161.151,2,0,0,4
161.151,5,0,0,6
161.152,7,2,1,7
161.152,7,2,2,7
161.153,7,1,2,7
161.153,6,1,2,6
161.154,5,2,4,7
161.155,7,4,6,9
161.155,9,6,6,6
161.156,5,5,4,3
161.156,1,2,2,1
161.157,1,1,2,1
161.157,1,1,1,0
161.158,1,3,2,1
161.159,4,4,2,2
161.159,4,4,2,0
161.16,3,3,0,0
161.16,1,0,-1,-1
161.161,2,2,-1,0
161.161,2,2,0,0
161.162,4,3,1,2
161.163,4,4,2,2
161.163,4,4,2,2
161.164,4,5,3,3
161.164,5,8,6,3
161.165,5,9,7,1
161.165,2,6,4,0
161.166,0,6,5,-1
161.167,0,3,0,-3
161.167,-4,0,0,-2
161.168,-4,-3,-2,0
161.168,-1,-1,0,2
161.169,3,2,2,4
161.169,5,2,3,4
161.17,3,0,1,5
161.171,4,0,0,6
161.171,7,0,0,6
161.172,7,1,1,6
161.172,6,0,1,6
161.173,7,2,3,8
161.173,7,4,4,7
161.174,6,3,3,6
161.175,7,5,5,4
161.175,5,7,7,5
161.176,5,7,7,3
161.176,3,6,5,2
161.177,1,2,1,0
161.177,0,0,-1,-2
161.178,0,1,-1,-2
161.179,1,2,0,-2
161.179,2,4,1,0
161.18,2,4,1,0
161.18,2,3,0,1
161.181,3,1,0,0
161.181,1,0,0,1
161.182,2,0,0,4
161.183,4,1,3,5
161.183,5,4,4,5
161.184,5,5,6,6
161.184,8,9,8,7
161.185,10,12,8,4
161.185,5,7,4,-1
161.186,0,3,2,-2
161.187,-5,0,0,-4
161.187,-6,-2,0,-2
161.188,-4,-1,1,1
161.188,2,2,2,3
161.189,5,4,2,1
161.189,3,3,1,2
161.19,2,1,0,3
161.191,4,0,-1,5
161.191,11,5,-1,6
161.192,18,9,-2,3
161.192,13,6,-4,0
161.193,5,0,-5,0
161.194,3,0,-2,0
161.194,3,1,0,1
161.195,4,5,5,4
161.195,5,6,6,5
161.196,6,6,5,4
161.196,4,5,5,2
161.197,0,1,2,0
161.198,-2,0,2,1
161.198,-1,1,4,4
161.199,2,3,5,4
161.199,3,3,4,3
161.2,1,2,2,2
161.201,1,1,2,3
161.201,4,3,3,3
161.202,4,4,4,4
161.202,3,2,2,2
161.203,0,-2,-1,1
161.203,2,-1,0,4
161.204,7,7,6,6
161.204,8,11,8,4
161.205,5,8,7,1
161.206,0,4,4,0
161.206,0,2,2,-1
161.207,-2,0,0,-1
161.207,-2,0,1,0
161.208,0,0,0,0
161.209,1,0,0,2
161.209,3,2,2,4
161.21,5,3,0,3
161.21,3,1,0,2
161.211,4,1,0,3
161.211,4,0,0,3
161.212,5,1,0,3
161.212,6,1,0,4
161.213,6,2,0,6
161.214,8,4,3,7
161.214,8,5,4,6
161.215,8,8,5,5
161.215,6,5,3,2
161.216,4,4,2,1
161.216,2,3,2,0
161.217,0,2,1,0
161.218,0,1,1,0
161.218,0,1,0,0
161.219,1,2,1,1
161.219,3,3,2,2
161.22,3,3,2,1
161.221,4,4,2,1
161.221,2,1,0,1
161.222,2,1,0,2
161.222,3,1,1,3
161.223,5,3,2,3
161.223,4,3,3,4
161.224,5,6,5,4
161.225,4,8,6,4
161.225,3,6,4,1
161.226,2,5,4,0
161.226,2,5,4,0
161.227,1,3,0,-1
161.227,0,1,0,-2
161.228,0,1,0,0
161.229,0,0,0,0
161.229,0,0,0,0
161.23,0,1,1,2
161.23,1,-1,0,3
161.231,3,0,1,4
161.232,6,3,2,7
161.232,8,5,3,6
161.233,7,2,0,5
161.233,8,4,2,6
161.234,8,3,1,4
161.234,4,1,1,4
161.235,3,2,2,3
161.236,2,3,5,5
161.236,5,5,5,5
161.237,5,5,5,4
161.237,4,4,3,1
161.238,2,2,1,0
161.238,0,2,1,0
161.239,1,2,1,1
161.239,3,3,1,1
161.24,4,3,0,0
161.241,2,1,0,0
161.241,1,0,0,1
161.242,2,2,1,2
161.242,3,3,2,2
161.243,4,3,1,2
161.244,4,4,3,3
161.244,6,8,6,3
161.245,5,8,6,2
161.245,5,7,4,0
161.246,3,5,1,-1
161.246,1,4,0,-1
161.247,0,2,0,-2
161.248,0,0,-2,-3
161.248,0,0,-2,-1
161.249,1,1,0,0
161.249,1,3,2,2
161.25,0,1,3,2
161.25,0,-1,1,2
161.251,-1,-3,1,4
161.252,2,-1,3,7
161.252,5,1,4,9
161.253,6,1,4,9
161.253,7,3,5,9
161.254,8,4,5,8
161.254,8,6,7,7
161.255,6,6,6,6
161.256,5,4,4,4
161.256,6,5,3,3
161.257,8,7,1,0
161.257,6,6,0,-1
161.258,0,0,-2,-3
161.258,-1,-2,-4,-2
161.259,0,0,-3,-2
161.26,0,0,-1,0
161.26,2,2,1,1
161.261,5,5,3,3
161.261,5,6,4,1
161.262,1,2,3,0
161.262,-2,0,3,1
161.263,-1,0,4,4
161.264,0,2,7,6
161.264,1,3,9,8
161.265,3,4,8,8
161.265,5,7,8,8
161.266,11,12,6,5
161.266,9,9,2,0
161.267,5,5,0,-3
161.268,3,3,-3,-4
161.268,1,0,-7,-8
161.269,-2,-1,-6,-5
161.269,-1,-1,-4,-2
161.27,0,-1,-2,0
161.27,1,0,0,2
161.271,2,0,0,5
161.272,4,0,1,6
161.272,6,1,2,8
161.273,7,2,4,10
161.273,9,6,5,8
161.274,7,5,6,7
161.274,6,6,6,7
161.275,8,8,6,7
161.276,10,9,5,3
161.276,5,6,2,0
161.277,1,1,0,-2
161.277,0,0,-1,-3
161.278,-1,0,0,-1
161.279,0,0,0,0
161.279,1,2,1,2
161.28,2,2,1,1
161.28,2,2,1,2
161.281,2,1,2,2
161.281,2,2,2,3
161.282,3,2,2,4
161.283,4,3,3,4
161.283,4,3,2,3
161.284,3,5,5,4
161.284,5,8,8,3
161.285,3,5,6,1
161.285,0,3,4,0
161.286,-1,3,6,0
161.287,-1,2,4,0
161.287,-2,1,3,2
161.288,2,2,1,1
161.288,3,2,0,1
161.289,3,1,0,3
161.29,9,5,-1,3
161.29,11,6,-3,-1
161.291,2,-1,-6,-2
161.291,0,-3,-3,1
161.292,2,-2,-1,3
161.292,3,-1,0,4
161.293,6,3,3,7
161.293,9,8,7,10
161.294,10,8,7,8
161.295,10,9,7,6
161.295,7,7,4,2
161.296,4,5,3,0
161.296,1,3,2,0
161.297,0,2,1,0
161.297,1,3,1,-1
161.298,0,0,0,-2
161.299,-1,0,0,0
161.299,0,3,3,2
161.3,3,5,4,3
161.3,3,3,2,1
161.301,1,-1,-1,1
161.301,1,0,0,3
161.302,4,1,2,5
161.303,4,0,1,5
161.303,5,1,1,5
161.304,7,8,8,7
161.304,8,10,8,5
161.305,5,10,8,3
161.305,3,7,6,1
161.306,1,5,3,-1
161.307,-2,1,0,-5
161.307,-4,0,-2,-4
161.308,-3,-1,-1,-1
161.308,0,0,0,1
161.309,2,2,2,2
161.31,3,2,0,2
161.31,3,0,0,2
161.311,3,0,0,3
161.311,3,0,0,5
161.312,6,0,1,7
161.312,6,0,0,6
161.313,7,2,1,6
161.314,9,4,3,7
161.314,9,6,4,6
161.315,8,7,5,5
161.315,4,3,4,3
161.316,3,2,4,3
161.317,3,3,3,3
161.317,1,2,3,0
161.318,0,1,3,1
161.318,0,2,2,0
161.319,0,2,2,1
161.319,0,1,2,0
161.32,0,1,1,1
161.321,1,2,2,3
161.321,5,3,1,3
161.322,9,6,0,2
161.322,8,6,0,1
161.323,4,2,-2,0
161.323,5,3,0,1
161.324,6,7,4,1
161.325,4,8,4,0
161.325,2,7,5,0
161.326,0,4,3,-1
161.326,0,3,1,-1
161.327,-1,2,1,-1
161.327,0,1,0,0
161.328,0,2,0,0
161.328,0,1,1,1
161.329,1,1,2,2
161.33,1,1,3,2
161.33,1,0,1,3
161.331,2,-1,0,5
161.331,4,0,1,6
161.332,5,0,0,7
161.333,6,-2,0,8
161.333,10,2,1,8
161.334,11,5,3,8
161.334,10,8,6,8
161.335,9,8,6,6
161.335,6,6,4,2
161.336,2,3,2,0
161.337,0,1,1,0
161.337,-1,0,1,0
161.338,-1,0,1,0
161.338,-1,0,2,1
161.339,0,1,2,2
161.339,1,2,2,2
161.34,2,2,3,2
161.341,3,3,3,4
161.341,6,6,3,3
161.342,6,5,2,1
161.342,3,2,0,0
161.343,2,2,0,1
161.343,3,3,1,1
161.344,5,6,3,1
161.345,4,6,4,2
161.345,3,4,3,0
161.346,2,4,3,0
161.346,1,4,2,0
161.347,1,3,1,-1
161.347,0,2,0,-1
161.348,0,0,1,0
161.349,0,0,1,2
161.349,1,1,1,3
161.35,3,1,1,4
161.35,4,2,0,5
161.351,6,1,0,4
161.351,7,1,0,4
161.352,6,1,0,4
161.353,5,1,0,4
161.353,6,3,2,6
161.354,7,4,4,7
161.354,8,7,6,6
161.355,6,6,5,4
161.355,3,4,4,1
161.356,1,4,4,1
161.357,1,2,2,1
161.357,1,2,1,0
161.358,1,1,0,0
161.358,0,1,0,0
161.359,2,3,2,2
161.359,2,3,3,2
161.36,3,3,2,2
161.361,2,1,0,2
161.361,2,2,1,2
161.362,3,2,3,3
161.362,2,2,2,3
161.363,3,2,2,3
161.364,4,4,4,3
161.364,6,9,7,5
161.365,7,11,8,5
161.365,8,10,4,0
161.366,6,9,2,-4
161.366,0,1,-2,-6
161.367,-4,-2,-3,-5
161.368,-4,-3,-3,-3
161.368,-3,-3,-3,-2
161.369,-1,-1,1,4
161.369,4,5,5,9
161.37,11,8,5,8
161.37,11,5,0,2
161.371,4,0,-3,0
161.372,0,-2,-3,2
161.372,1,-2,0,4
161.373,3,0,1,7
161.373,6,3,4,8
161.374,8,5,6,9
161.374,9,7,7,8
161.375,8,6,5,5
161.376,4,4,3,2
161.376,2,3,2,2
161.377,2,3,2,1
161.377,1,2,1,0
161.378,0,1,2,1
161.378,0,0,1,0
161.379,-1,0,1,0
161.38,0,0,3,2
161.38,0,2,4,4
161.381,2,3,5,4
161.381,3,3,4,4
161.382,3,3,3,5
161.383,7,4,2,6
161.383,10,7,1,4
161.384,13,12,0,0
161.384,10,12,1,-3
161.385,3,7,0,-5
161.385,-1,1,-1,-5
161.386,-2,1,0,-4
161.387,-3,0,-1,-4
161.387,-3,0,1,0
161.388,-2,0,2,1
161.388,0,1,2,3
161.389,3,2,3,3
161.389,3,1,2,2
161.39,1,0,2,4
161.391,2,1,3,7
161.391,6,1,3,8
161.392,7,0,1,6
161.392,6,0,0,7
161.393,7,1,1,7
161.394,8,4,3,7
161.394,9,5,4,8
161.395,8,7,5,5
161.395,7,7,5,2
161.396,3,6,4,1
161.396,3,5,3,-1
161.397,0,1,0,-2
161.397,-1,0,0,-1
161.398,-1,0,-1,-1
161.399,1,2,1,1
161.399,3,4,4,3
161.4,4,4,3,2
161.4,2,2,1,1
161.401,1,0,0,0
161.401,0,-1,0,3
161.402,2,0,0,4
161.403,4,3,4,5
161.403,5,5,5,5
161.404,6,8,8,5
161.404,5,8,8,4
161.405,4,8,7,2
161.405,1,4,2,0
161.406,0,3,2,-1
161.407,0,2,1,-2
161.407,0,2,1,-1
161.408,0,0,0,-1
161.408,0,0,0,0
161.409,1,0,0,1
161.409,1,-1,-1,1
161.41,2,-1,-2,3
161.411,5,1,0,5
161.411,6,3,1,7
161.412,8,5,2,6
161.412,9,5,2,5
161.413,8,2,1,5
161.413,6,1,0,5
161.414,7,3,1,4
161.415,7,6,4,4
161.415,6,6,5,4
161.416,5,6,4,3
161.416,5,4,1,0
161.417,2,2,0,-1
161.417,0,0,0,-1
161.418,0,0,0,0
161.419,1,1,1,2
161.419,2,2,2,2
161.42,1,2,2,2
161.42,1,2,2,2
161.421,1,1,2,3
161.422,2,3,4,4
161.422,3,3,3,3
161.423,2,2,3,3
161.423,4,5,6,5
161.424,6,10,8,4
161.424,5,10,7,2
161.425,2,6,4,0
161.426,0,4,3,-2
161.426,0,2,1,-2
161.427,-1,0,-1,-3
161.427,0,0,0,2
161.428,9,7,-1,1
161.429,11,8,-2,-3
161.429,0,0,-5,-4
161.43,-1,-3,-3,-1
161.43,0,-3,-2,0
161.431,0,-3,-1,4
161.431,4,0,1,7
161.432,8,4,5,10
161.433,9,5,5,8
161.433,8,4,5,6
161.434,5,2,5,8
161.434,5,3,5,7
161.435,6,6,7,7
161.435,7,7,5,6
161.436,6,6,4,3
161.437,2,3,1,1
161.437,1,2,0,0
161.438,1,4,1,0
161.438,3,4,1,0
161.439,1,2,0,-1
161.439,0,1,0,-1
161.44,-2,0,0,0
161.44,1,1,1,2
161.441,2,1,3,4
161.442,4,2,1,2
161.442,3,0,1,3
161.443,3,1,1,4
161.443,6,5,3,4
161.444,9,9,7,5
161.445,8,12,8,3
161.445,5,9,5,0
161.446,2,6,4,-2
161.446,0,4,1,-3
161.447,-1,2,0,-4
161.447,-4,-2,-3,-5
161.448,-4,-4,-2,-1
161.449,-1,0,0,2
161.449,2,1,2,4
161.45,4,0,1,5
161.45,4,1,1,5
161.451,5,0,2,6
161.451,5,0,2,6
161.452,3,-1,1,7
161.453,3,0,3,7
161.453,5,1,4,8
161.454,8,4,6,10
161.454,9,7,7,10
161.455,10,8,5,7
161.455,10,8,3,6
161.456,14,12,1,2
161.457,13,12,-1,-4
161.457,4,4,-6,-9
161.458,-3,-1,-8,-10
161.458,-7,-3,-6,-7
161.459,-6,-2,-2,-2
161.459,-1,0,2,2
161.46,2,3,4,5
161.461,4,3,4,5
161.461,3,1,2,3
161.462,0,1,4,4
161.462,2,3,7,6
161.463,5,6,7,7
161.463,7,7,7,6
161.464,8,11,8,4
161.465,4,7,6,1
161.465,1,5,3,0
161.466,0,3,2,0
161.466,0,1,0,-2
161.467,-1,-1,-1,-2
161.468,-1,-1,-2,-1
161.468,0,0,0,1
161.469,1,0,0,2
161.469,2,1,2,3
161.47,3,0,1,4
161.47,3,1,2,4
161.471,4,1,2,6
161.471,6,1,1,6
161.472,8,3,2,7
161.473,7,2,1,6
161.473,8,3,2,6
161.474,8,4,2,5
161.474,7,5,3,4
161.475,6,5,3,3
161.476,4,4,3,1
161.476,2,2,1,0
161.477,1,2,0,1
161.477,3,3,1,2
161.478,5,5,0,0
161.478,2,3,0,0
161.479,1,2,0,0
161.48,1,2,0,0
161.48,-1,-1,0,0
161.481,-1,0,2,3
161.481,1,2,5,4
161.482,3,3,5,5
161.482,3,4,6,4
161.483,4,5,6,5
161.484,4,6,5,4
161.484,4,4,4,3
161.485,3,2,1,1
161.485,3,4,2,0
161.486,3,6,4,0
161.486,1,3,2,0
161.487,0,1,0,0
161.488,0,1,1,0
161.488,0,0,0,1
161.489,0,0,0,1
161.489,0,1,1,2
161.49,3,0,1,4
161.49,4,0,1,5
161.491,4,0,0,4
161.492,4,0,1,6
161.492,7,2,1,7
161.493,11,5,1,5
161.493,9,4,2,5
161.494,7,3,1,4
161.494,7,5,3,3
161.495,6,6,3,2
161.496,3,5,3,1
161.496,3,4,3,1
161.497,2,3,1,0
161.497,0,3,1,-1
161.498,0,2,1,0
161.499,1,3,2,0
161.499,3,5,3,2
161.5,4,3,0,0
161.5,0,0,-1,0
161.501,0,-2,-1,0
161.501,0,0,0,3
161.502,4,2,2,5
161.503,6,4,3,5
161.503,7,4,3,4
161.504,7,7,6,5
161.504,8,10,8,4
161.505,6,11,8,0
161.505,1,6,5,-1
161.506,-2,1,1,-2
161.507,-3,0,0,-2
161.507,-3,-1,-1,-2
161.508,-3,-1,0,0
161.508,-1,0,1,2
161.509,2,1,2,3
161.509,3,2,3,5
161.51,4,1,0,5
161.511,6,2,1,6
161.511,9,4,0,6
161.512,10,4,-1,3
161.512,7,0,-2,2
161.513,4,0,-1,4
161.513,6,2,0,4
161.514,5,3,3,5
161.515,6,7,7,6
161.515,6,6,5,5
161.516,4,4,4,2
161.516,2,2,1,0
161.517,1,2,2,0
161.517,1,2,3,1
161.518,1,2,2,2
161.519,3,5,2,2
161.519,6,7,1,0
161.52,3,3,0,0
161.52,1,1,0,0
161.521,0,0,0,0
161.521,0,0,1,1
161.522,0,1,3,3
161.523,0,2,4,5
161.523,5,5,5,7
161.524,10,10,6,6
161.524,8,9,6,0
161.525,1,5,3,0
161.525,0,2,3,0
161.526,0,3,4,0
161.527,0,2,2,0
161.527,-1,1,1,0
161.528,-2,-1,0,1
161.528,0,0,1,3
161.529,3,2,1,5
161.53,9,6,1,3
161.53,6,3,0,2
161.531,3,-1,-3,0
161.531,3,-1,-3,1
161.532,3,0,-1,3
161.532,3,0,0,5
161.533,6,2,3,8
161.534,9,7,5,8
161.534,9,7,5,7
161.535,8,8,6,5
161.535,4,3,3,2
161.536,3,3,3,1
161.536,1,2,2,1
161.537,1,2,2,1
161.538,2,2,2,0
161.538,1,2,1,0
161.539,0,1,1,1
161.539,2,3,2,3
161.54,3,3,2,1
161.54,2,1,0,1
161.541,1,1,1,2
161.542,2,3,4,3
161.542,3,3,3,4
161.543,6,4,1,4
161.543,11,9,2,1
161.544,8,9,2,0
161.544,3,6,2,-1
161.545,0,3,2,-1
161.546,0,3,2,-1
161.546,0,3,1,-1
161.547,0,1,0,-2
161.547,-1,1,1,0
161.548,0,1,2,1
161.548,2,1,2,2
161.549,1,1,1,2
161.55,2,1,2,3
161.55,3,0,1,5
161.551,5,1,1,5
161.551,5,1,0,5
161.552,6,1,0,4
161.552,4,0,0,6
161.553,6,0,0,7
161.554,8,2,2,7
161.554,10,6,3,6
161.555,8,6,5,5
161.555,4,5,5,4
161.556,3,4,5,4
161.556,3,3,3,2
161.557,1,0,0,0
161.558,0,0,0,0
161.558,1,2,1,1
161.559,1,2,2,1
161.559,2,3,3,3
161.56,3,2,1,2
161.56,2,1,1,1
161.561,1,1,1,2
161.562,2,1,1,4
161.562,3,1,0,3
161.563,4,2,1,3
161.563,5,5,3,3
161.564,7,10,7,4
161.564,6,9,7,3
161.565,3,6,4,0
161.566,0,4,2,-1
161.566,-2,1,0,-2
161.567,-2,1,1,-2
161.567,-1,0,0,-1
161.568,0,1,0,0
161.568,1,1,1,0
161.569,2,2,1,2
161.57,2,0,0,2
161.57,3,0,0,4
161.571,5,1,0,5
161.571,7,1,0,5
161.572,7,2,1,5
161.573,7,2,0,6
161.573,7,5,4,6
161.574,6,5,3,4
161.574,5,5,7,5
161.575,2,4,5,4
161.575,1,4,5,3
161.576,1,4,5,3
161.577,0,0,1,2
161.577,1,0,0,2
161.578,5,4,2,3
161.578,7,6,1,3
161.579,10,9,1,1
161.579,8,7,-1,-2
161.58,2,2,-2,-4
161.581,-1,0,-3,-3
161.581,-1,0,-1,-1
161.582,0,0,0,0
161.582,0,0,2,3
161.583,3,2,3,4
161.583,4,4,5,5
161.584,5,7,7,5
161.585,4,7,7,4
161.585,4,6,6,4
161.586,4,7,6,2
161.586,2,6,5,0
161.587,-2,0,0,-1
161.587,-4,-5,-3,-2
161.588,-2,-4,-1,2
161.589,1,1,2,5
161.589,6,6,6,7
161.59,9,6,2,5
161.59,8,3,0,3
161.591,6,0,-3,2
